========== ECG 算法诊断包 ==========
测量时间: 2026-07-17 10:18:17
测量时间戳:1784254697125
采样率:500 Hz
数据点数:15320
时长:30.6 秒
分析方法:ds_pro_max
Tavily状态:已检索医学文献并注入提示词（房颤检测方法学/HRV参考值/QTc临床意义）

[原始 ECG 数据]
# 单位: mV×1000 整数（如 500 = 0.5mV，-1000 = -1.0mV）
# 采样率: 500 Hz，连续采样，无降采样无压缩
# 用途: 助手据此复现本地算法行为（基线漂移/噪声段/R波检测）
# 格式: 每行一个数值，行号=采样点索引（第1行=索引0，即 t=0.000s）
139319
139414
139450
139510
139580
139495
139513
139554
139370
139361
139443
139559
139528
139475
139549
139624
139702
139678
139612
139582
139521
139514
139586
139688
139690
139591
139539
139485
139533
139609
139601
139598
139689
139677
139652
139529
139599
139666
139604
139559
139493
139571
139623
139682
139650
139586
139647
139556
139596
139669
139574
139542
139587
139570
139603
139533
139489
139597
139774
139877
139791
139788
139723
139721
139767
139723
139793
139794
139797
139817
139781
139724
139764
139807
139909
139843
139834
139943
139879
139777
139762
139832
139858
139923
140025
139942
139913
139894
139880
139937
139987
139986
140034
140037
140006
139997
139914
139968
140046
140024
139974
140028
140013
139990
140061
140101
140132
140049
140108
140013
139918
139884
139870
139870
139924
139990
140080
140134
140090
139992
139950
139957
139909
139910
139972
139972
140025
140078
140025
139971
139964
139978
140025
139987
140058
139952
139990
139888
139865
139855
139870
139946
139959
140038
140048
139899
139902
140016
140020
140016
139890
139936
139959
140015
139871
139869
139957
140056
140112
140063
139993
140009
139965
139967
140019
140032
140084
140064
140064
140057
140045
140100
140107
140151
140113
140115
140234
140155
140108
140010
139974
140085
140214
140235
140320
140255
140199
140271
140189
140110
140063
140156
140227
140254
140332
140314
140269
140239
140250
140164
140124
140371
140346
140278
140244
140238
140242
140239
140300
140294
140325
140292
140272
140407
140309
140264
140280
140230
140291
140307
140225
140278
140443
140465
140390
140389
140366
140408
140414
140467
140471
140388
140353
140408
140446
140436
140424
140486
140508
140545
140496
140489
140489
140527
140507
140483
140490
140528
140504
140594
140594
140513
140446
140499
140487
140499
140513
140553
140553
140525
140474
140523
140618
140655
140702
140656
140634
140771
140787
140707
140590
140514
140589
140572
140665
140747
140791
140816
140830
140748
140740
140745
140770
140810
140809
140724
140682
140753
140751
140696
140680
140747
140848
140859
140920
140945
140903
140906
140942
140886
140863
140910
140959
140974
140980
141031
141052
140931
140960
141025
141041
140984
141021
140976
141017
140986
141019
140993
141092
141010
141027
141110
141040
141067
140989
141043
141198
141165
141042
141046
141015
141055
141105
141081
141168
141162
141241
141257
141204
141188
141209
141269
141192
141142
141216
141283
141349
141269
141202
141182
141222
141165
141220
141268
141282
141279
141303
141310
141330
141351
141289
141231
141207
141213
141272
141333
141356
141443
141471
141415
141343
141341
141381
141426
141414
141479
141523
141454
141414
141295
141351
141497
141512
141505
141552
141561
141617
141710
141616
141619
141618
141557
141521
141540
141621
141632
141683
141631
141627
141544
141485
141593
141610
141585
141754
141638
141588
141593
141755
141638
141622
141628
141577
141551
141640
141704
141714
141714
141737
141764
141714
141880
141921
141839
141766
141792
141868
141941
141906
141833
141779
141840
141863
141765
141858
141844
141805
141862
141835
141825
141812
141845
141840
141847
141888
141879
141974
142037
141944
141854
141786
141861
142024
142109
142219
142225
142320
142195
142176
142147
142082
141937
141910
141941
141895
141815
141705
141715
141781
141761
141750
141749
141820
141841
141911
141971
142029
142032
142077
142073
141982
142030
142120
142123
142082
142140
142257
142270
142233
142304
142313
142278
142324
142363
142340
142239
142308
142354
142435
142410
142455
142556
142601
142488
142423
142412
142467
142546
142576
142613
142553
142560
142586
142610
142616
142616
142684
142749
142614
142609
142551
142645
142656
142689
142597
142579
142597
142693
142748
142732
142745
142756
142676
142610
142610
142682
142792
142811
142698
142695
142657
142696
142781
142821
142697
142672
142744
142819
142857
142825
142860
142788
142797
142850
142900
142770
142825
142845
142793
142811
142768
142848
142917
142977
142954
142974
142924
142955
143043
143069
142822
142957
142964
142899
142892
142987
143066
143014
143038
143074
143064
143049
143066
143026
142984
142971
143016
143153
143174
143264
143181
143316
143322
143201
143141
143142
143249
143283
143201
143273
143282
143311
143337
143292
143278
143230
143356
143348
143291
143293
143222
143224
143240
143261
143222
143173
143276
143372
143255
143180
143090
143084
143092
143059
143037
143048
143166
143239
143263
143226
143178
143244
143233
143234
143231
143173
143192
143309
143238
143187
143206
143235
143302
143297
143339
143335
143397
143440
143400
143403
143417
143437
143475
143389
143378
143361
143348
143374
143429
143403
143376
143430
143447
143484
143427
143447
143486
143552
143568
143546
143538
143584
143596
143678
143657
143590
143522
143583
143631
143649
143581
143564
143630
143700
143512
143508
143503
143563
143562
143573
143523
143545
143514
143519
143419
143392
143426
143458
143515
143611
143667
143652
143605
143520
143534
143547
143561
143541
143515
143480
143339
143476
143646
143642
143664
143695
143776
143773
143758
143714
143659
143635
143686
143701
143638
143611
143714
143733
143775
143812
143840
143826
143838
143820
143835
143829
143871
143961
143879
143862
143843
143943
143932
143855
143804
143834
143823
143956
144006
144073
144042
144031
144076
144125
143986
143969
144099
144185
144246
144254
144242
144207
144165
144198
144155
144118
144175
144153
144174
144195
144225
144267
144230
144283
144316
144217
144294
144335
144270
144261
144239
144223
144247
144276
144227
144330
144418
144472
144444
144422
144370
144396
144455
144323
144353
144300
144329
144528
144575
144508
144476
144508
144518
144489
144375
144439
144505
144611
144517
144458
144490
144515
144490
144488
144532
144512
144554
144559
144595
144528
144508
144557
144613
144629
144641
144630
144724
144687
144659
144766
144620
144525
144580
144654
144570
143262
143359
143929
144266
144365
144419
144488
144542
144653
144616
144501
144606
144724
144699
144673
144610
144634
144667
144709
144701
144633
144653
144665
144736
144756
144789
144840
144747
144661
144679
144805
144806
144919
144930
144940
144849
144859
144908
144902
144899
144871
144795
144868
144952
145046
145093
145116
145019
144987
144983
145015
145089
145078
144990
145000
145023
145146
145171
145095
145115
145054
145003
145137
145253
145236
145204
145055
145168
145120
145089
145129
145207
145181
145186
145216
145230
145256
145237
145189
145189
145225
145253
145400
145375
145416
145484
145469
145363
145364
145380
145325
145338
145350
145344
145394
145378
145485
145574
145566
145499
145477
145493
145565
145541
145552
145549
145681
145747
145685
145766
145708
145724
145878
145896
145755
145594
145492
145574
145633
145675
145572
145491
145526
145451
145291
145256
145223
145344
145333
145429
145412
145423
145486
145580
145555
145592
145738
145630
145661
145694
145706
145821
145853
145888
145897
145905
145962
145945
145827
145900
145899
146003
145951
146009
146047
145977
145995
146001
145993
145919
145977
146086
146167
146150
146167
146079
146111
146143
146093
146127
146073
146209
146164
146200
146166
146122
146161
146216
146249
146269
146273
146324
146378
146521
146426
146363
146378
146383
146316
146347
146324
146410
146520
146505
146527
146438
146443
146517
146506
146570
146484
146472
146574
146662
146632
146467
146595
146644
146611
146605
146534
146641
146668
146667
146734
146721
146761
146767
146814
146812
146750
146809
146748
146765
146823
146797
146820
146785
146768
146853
146856
146858
146832
146781
146792
146840
146945
146903
146891
146850
146797
146781
146790
147052
147054
146914
146945
146948
146936
146919
146899
146967
146942
146919
146936
146945
147017
147028
146964
146959
146959
146950
146967
146970
146951
147004
146875
146822
146956
147005
147001
147089
147123
147104
147024
147100
147136
147125
146979
146944
147001
147051
147108
147080
147068
147167
147146
147125
147181
147136
147132
147164
147102
147171
147223
147244
147250
147235
147151
147219
147191
147121
147238
147327
147234
147232
147350
147330
147210
147214
147196
147217
147370
147500
147398
147402
147411
147417
147383
147405
147380
147395
147418
147494
147446
147342
147441
147454
147438
147445
147386
147463
147605
147572
147475
147407
147503
147486
147434
147522
147548
147484
147499
147571
147588
147603
147543
147474
147481
147538
147450
147459
147568
147659
147622
147587
147539
147590
147578
147531
147460
147572
147618
147611
147689
147486
147504
147532
147529
147539
147557
147565
147587
147625
147676
147630
147742
147693
147580
147576
147589
147564
147627
147705
147687
147607
147691
147707
147728
147701
147614
147648
147693
147739
147720
147668
147686
147672
147619
147691
147781
147857
147876
147914
147835
147762
147775
147760
147744
147798
147773
147791
147776
147831
147918
147955
147924
147826
147798
147796
147809
147888
147894
147844
147813
147831
147865
147809
147776
147816
147805
147853
148033
148064
148138
147994
147853
147786
147888
147854
147823
147889
147951
148004
148056
147992
148031
148047
147995
147885
147916
147950
148005
147934
147951
147946
147949
148083
148031
147948
147936
147963
148036
148018
148068
147977
148055
148028
148085
148127
148053
148122
148153
148165
148085
148091
148145
148061
148074
148042
147974
148007
148079
148082
148153
148131
148086
148145
148030
148003
148032
147940
147982
148034
148066
147990
148029
148067
148082
148027
147930
147936
147919
147998
148052
148023
148075
148212
148152
148078
148026
148010
148072
148127
148102
148016
148059
148164
148220
148144
148207
148093
148050
148060
148115
148028
148087
148150
148121
147995
147926
148021
148090
148231
148209
148100
148183
148202
148246
148190
148134
148135
148216
148318
148196
148161
148152
148154
148190
148224
148217
148175
148280
148209
148239
148198
148284
148288
148273
148169
148121
148200
148181
148245
148278
148247
148215
148179
148176
148096
148109
148252
148314
148284
148266
148235
148240
148238
148277
148190
148167
148223
148225
148203
148095
148145
148236
148299
148278
148273
148191
148199
148239
148328
148443
148368
148376
148362
148391
148392
148303
148248
148248
148216
148132
148012
147958
147933
147839
147801
147781
147733
147884
147962
147870
147888
147943
148040
148091
148075
148155
148125
148197
148193
148204
148175
148142
148112
148186
148355
148368
148451
148387
148372
148367
148363
148364
148366
148396
148361
148286
148338
148421
148313
148415
148404
148356
148381
148405
148395
148302
148373
148367
148445
148488
148546
148467
148392
148347
148544
148557
148512
148505
148501
148572
148563
148560
148567
148601
148548
148534
148683
148643
148566
148588
148616
148623
148569
148608
148629
148587
148603
148559
148600
148715
148711
148676
148695
148710
148685
148650
148585
148520
148553
148628
148638
148757
148805
148770
148697
148635
148602
148703
148752
148842
148764
148745
148793
148722
148667
148715
148724
148672
148723
148714
148702
148827
148874
148801
148786
148813
148819
148785
148801
148811
148789
148818
148868
148897
148870
148662
148739
148867
148806
148841
148784
148806
148841
148793
148739
148645
148738
148843
148852
148846
148881
148830
148902
148829
148743
148722
148800
148746
148813
148879
148887
148888
148878
148873
148897
148764
148719
148756
148815
148878
148831
148861
148815
148771
148767
148759
148875
148904
148861
148881
148823
148837
148873
148824
148788
148760
148766
148726
148780
148920
148922
149003
149066
148966
148886
148849
148875
148950
148981
149007
148934
148963
149043
149063
149025
148989
149016
149032
148940
148948
149017
149131
149190
149197
149105
149083
149111
149031
149118
149114
149115
149065
149041
149118
149118
149062
149143
149136
149214
149204
149109
149070
149129
149233
149146
149093
149101
149159
149167
149315
149233
149171
149166
149166
149066
149008
148994
149027
149140
149127
149074
149146
149100
149075
149063
149036
149077
149141
149213
149211
149139
149230
149128
149183
149107
149130
149237
149177
149167
149175
149155
149127
149224
149367
149379
149269
149230
149236
149274
149246
149252
149400
149437
149395
149362
149312
149345
149403
149417
149414
149448
149389
149356
149322
149317
149301
149362
149355
149338
149409
149444
149470
149508
149498
149499
149432
149427
149419
149464
149557
149582
149556
149425
149455
149432
149446
149469
149448
149417
149522
149441
149444
149390
149472
149617
149498
149478
149478
149450
149405
149418
149453
149495
149456
149451
149420
149443
149433
149354
149407
149531
149580
149551
149640
149472
149512
149568
149580
149518
149523
149500
149573
149671
149607
149598
149529
149505
149590
149613
149677
149554
149564
149523
149633
149637
149575
149626
149646
149712
149632
149632
149708
149745
149665
149550
149500
149530
149625
149597
149699
149735
149843
149880
149842
149731
149676
149680
149735
149787
149735
149866
149953
149976
149936
149915
149850
149860
149860
149901
149934
149917
149835
149831
149872
149903
149850
149898
149915
149965
149966
149908
150033
150083
150016
149938
149855
149880
149913
149907
149886
149826
149908
149907
149894
149942
149905
149872
149881
149871
149884
149826
149919
150005
150035
149998
149879
149826
149851
149838
149904
149992
150010
149956
149988
149935
149944
150023
149988
149938
149974
149983
150068
149983
149830
149716
149896
149983
150067
150095
150078
150037
150064
150107
150111
150026
149937
149968
150114
150250
150250
150196
150200
150279
150213
150259
150159
150107
150059
149980
149936
149906
149907
149692
149712
149626
149604
149560
149482
149529
149625
149711
149826
149864
150001
149976
149897
149895
149912
149983
149976
150031
150069
150042
150102
150119
150249
150157
150116
150141
150065
150091
150174
150158
150160
150136
150141
150252
150237
150155
150132
150115
150115
150207
150304
150217
150240
150221
150181
150302
150353
150201
150314
150415
150461
150360
150318
150243
150158
150173
150242
150238
150318
150340
150239
150270
150219
150247
150251
150296
150329
150332
150384
150345
150292
150259
150225
150228
150293
150388
150440
150357
150400
150320
150265
150269
150282
150310
150369
150477
150427
150307
150400
150453
150499
150360
150324
150446
150436
150428
150484
150429
150458
150483
150508
150474
150503
150441
150536
150546
150477
150519
150533
150525
150461
150527
150521
150583
150526
150489
150511
150547
150533
150602
150611
150656
150563
150473
150445
150452
150491
150453
150501
150557
150533
150446
150444
150393
150327
150319
150347
150425
150547
150495
150441
150328
150278
150346
150348
150342
150379
150456
150501
150399
150395
150395
150229
150327
150352
150299
150386
150327
150411
150467
150519
150507
150383
150323
150314
150336
150288
150318
150457
150508
150565
150562
150504
150404
150376
150360
150364
150390
150419
150359
150344
150365
150359
150431
150437
150491
150463
150460
150570
150573
150573
150565
150484
150456
150481
150403
150382
150490
150461
150490
150593
150653
150584
150552
150522
150527
150437
150494
150588
150627
150617
150598
150531
150481
150471
150551
150533
150416
150489
150553
150628
150498
150417
150506
150527
150547
150548
150598
150602
150595
150607
150675
150617
150689
150676
150664
150616
150522
150557
150585
150694
150728
150630
150638
150527
150530
150587
150601
150614
150582
150587
150663
150693
150687
150642
150744
150736
150762
150792
150697
150684
150783
150758
150703
150705
150707
150833
150742
150755
150878
150933
150844
150765
150786
150817
150848
150856
150780
150849
150891
150957
150946
150876
150928
150885
150811
150777
150859
150923
150985
150956
150935
150940
150976
151010
150933
150907
150879
150917
151000
151158
151145
151117
151196
151133
151074
151119
151105
151112
151114
151127
151146
151217
151268
151251
151227
151144
151120
151135
151187
151197
151164
151109
151152
151229
151328
151490
151331
151296
151340
151281
151229
151238
151286
151376
151348
151363
151212
151299
151398
151523
151432
151284
151348
151363
151290
151278
151236
151208
151355
151407
151351
151315
151345
151355
151411
151428
151379
151446
151402
151332
151373
151305
151311
151396
151411
151480
151435
151460
151461
151451
151406
151333
151400
151410
151389
151379
151418
151492
151510
151456
151527
151555
151427
151469
151516
151459
151407
151433
151568
151545
151599
151542
151531
151568
151574
151587
151489
151448
151521
151554
151603
151574
151653
151623
151603
151537
151539
151679
151660
151677
151682
151734
151675
151715
151704
151646
151632
151698
151629
151663
151688
151758
151738
151713
151805
151829
151683
151724
151788
151769
151759
151710
151717
151761
151740
151794
151837
151858
151848
151800
151843
151835
151845
151743
151761
151708
151748
151902
151992
151895
151815
151761
151786
151819
151902
152055
152003
151912
152025
152151
152169
152102
152089
152041
152110
152191
152069
152069
152070
152079
152059
151988
151960
151848
151751
151753
151691
151813
151797
151771
151709
151683
151661
151671
151696
151775
151714
151816
151920
151999
151858
151850
151950
152023
152043
151988
151955
152085
152128
152166
152214
152123
152170
152144
152178
152150
152106
152138
152139
152202
152250
152198
152210
152244
152276
152254
152240
152244
152341
152415
152365
152308
152331
152159
152105
152146
152173
152248
152396
152475
152433
152390
152387
152342
152376
152376
152340
152409
152372
152429
152491
152525
152539
152526
152497
152483
152455
152451
152410
152463
152415
152468
152542
152546
152500
152510
152440
152529
152624
152630
152576
152532
152585
152629
152562
152550
152631
152522
152630
152626
152577
152550
152585
152693
152749
152762
152683
152737
152725
152692
152639
152661
152790
152831
152789
152733
152679
152650
152685
152783
152770
152773
152844
152861
152830
152836
152842
152810
152716
152777
152697
152675
152835
152884
152733
152648
152636
152673
152837
152808
152833
152802
152734
152633
152638
152641
152619
152707
152802
152901
152754
152700
152680
152629
152635
152659
152703
152662
152609
152661
152749
152707
152780
152774
152701
152566
152568
152709
152660
152737
152782
152710
152780
152780
152739
152798
152753
152689
152704
152700
152681
152714
152685
152665
152705
152760
152793
152777
152876
152905
152844
152845
152888
152823
152818
152849
152817
152827
152860
152888
152964
153091
152956
152998
152926
152812
152863
152950
152921
152886
152870
152882
153046
152970
152901
152969
152976
152945
152856
152893
152968
152877
152889
152907
152881
152844
152816
152918
153069
153042
152963
152937
152945
152949
152905
152856
152891
153005
152972
153009
153030
152905
152845
152780
152799
152903
152971
152999
153077
153080
153014
153010
152946
152960
152949
152914
152958
152974
152958
153011
153032
153051
153066
153064
152991
153091
152971
152963
152996
152985
152965
152943
153025
153082
153043
152989
152976
153123
153124
153130
153131
153095
153066
153053
153031
153073
153022
152994
152985
153013
153026
152960
152952
152967
152985
153078
153078
153084
153051
153112
153074
153149
153119
153066
153044
153018
152971
152989
153051
153196
153311
153201
153219
152987
153048
153117
153018
153008
153140
153115
153163
153153
153174
153200
153208
153199
153160
153117
153126
153138
153202
153224
153284
153244
153256
153267
153140
153156
153246
153190
153162
153173
153160
153235
153294
153355
153218
153207
153328
153349
153363
153314
153316
153362
153397
153397
153265
153345
153371
153381
153351
153323
153379
153347
153208
153256
153315
153355
153319
153369
153321
153353
153417
153407
153440
153421
153318
153360
153429
153522
153582
153429
153496
153512
153441
153460
153522
153553
153528
153550
153581
153417
153453
153518
153517
153451
153374
153491
153630
153671
153661
153602
153593
153520
153455
153455
153462
153464
153601
153679
153647
153617
153612
153575
153630
153632
153677
153684
153711
153655
153750
153774
153741
153638
153682
153671
153575
153606
153613
153569
153584
153566
153604
153657
153620
153606
153572
153624
153634
153603
153614
153556
153585
153568
153538
153564
153659
153630
153626
153614
153593
153578
153622
153710
153663
153681
153696
153730
153770
153794
153765
153937
153924
153812
153791
153818
153864
153868
153828
153695
153758
153788
153697
153629
153526
153522
153442
153393
153329
153289
153364
153330
153400
153408
153436
153425
153420
153467
153510
153594
153634
153708
153742
153741
153753
153742
153687
153726
153829
153838
153867
153871
153877
153877
153843
153756
153794
153978
153979
153784
153831
153802
153859
153885
153807
153776
153776
153829
153854
153887
153862
153748
153760
153825
153882
153881
153845
153925
153981
154010
153985
153929
153928
153897
153832
153817
153888
153946
154027
153967
153846
153987
154011
154049
154036
153954
153878
153925
153918
153928
153999
154001
154094
154111
154030
153936
153878
153911
153933
154064
154142
154134
154145
154048
154001
154099
154129
154046
153986
154082
154173
154175
154143
154062
154105
154166
154130
154153
154175
154199
154130
154125
154158
154247
154285
154202
154160
154174
154184
154139
154189
154221
154222
154217
154309
154297
154310
154295
154247
154252
154291
154310
154315
154353
154302
154229
154251
154318
154332
154371
154413
154387
154349
154334
154271
154227
154236
154291
154291
154384
154309
154262
154219
154203
154191
154218
154206
154296
154340
154265
154265
154385
154439
154420
154291
154318
154259
154170
154186
154250
154321
154332
154429
154388
154299
154264
154206
154234
154286
154280
154310
154339
154373
154380
154451
154470
154472
154358
154316
154384
154409
154338
154306
154371
154368
154305
154315
154418
154399
154371
154377
154385
154433
154479
154445
154439
154436
154533
154617
154637
154522
154466
154519
154590
154536
154636
154644
154659
154561
154548
154560
154558
154658
154692
154665
154588
154612
154681
154647
154623
154619
154600
154633
154638
154704
154698
154579
154602
154686
154609
154502
154523
154685
154718
154715
154642
154619
154590
154601
154522
154525
154454
154524
154651
154611
154542
154619
154537
154531
154535
154458
154424
154480
154566
154536
154491
154358
154430
154405
154379
154408
154421
154463
154499
154368
154353
154414
154449
154383
154358
154406
154427
154410
154382
154426
154369
154349
154441
154434
154383
154351
154427
154450
154432
154393
154492
154364
154337
154337
154383
154398
154406
154347
154382
154389
154385
154314
154332
154307
154349
154401
154388
154395
154416
154394
154352
154464
154597
154505
154498
154680
154639
154650
154588
154408
154342
154413
154541
154526
154536
154570
154617
154663
154524
154489
154518
154547
154627
154664
154641
154655
154606
154634
154662
154651
154582
154508
154563
154539
154610
154797
154912
154852
154875
154787
154717
154752
154770
154754
154829
154783
154774
154860
154867
154869
154838
154811
154827
154813
154754
154889
154892
154889
154884
154821
154807
154767
154779
154826
154846
154931
154954
155049
155064
154949
154819
154851
154867
154932
154795
154885
154979
154930
154989
154915
155008
154956
154964
155097
155121
155110
154996
154926
155009
155071
155124
155086
155061
155016
155057
155129
155143
155096
155066
155016
154979
154941
154909
155007
155082
155108
155140
155124
155081
155044
155034
154990
154959
155030
155104
155164
155081
155178
155174
155205
155204
155141
155116
155056
155037
155075
155156
155205
155232
155282
155346
155280
155283
155273
155248
155308
155312
155325
155419
155473
155398
155398
155438
155544
155529
155536
155479
155512
155573
155603
155559
155469
155448
155355
155214
155227
155152
155141
155119
155143
155123
155016
155027
155099
155147
155152
155137
155316
155298
155297
155390
155428
155499
155453
155438
155519
155515
155585
155653
155691
155672
155644
155659
155632
155657
155778
155799
155745
155723
155718
155764
155662
155663
155714
155764
155658
155724
155806
155808
155762
155747
155786
155907
155836
155850
155931
155902
155914
155939
155971
156021
155929
155916
155879
155927
155953
155887
155974
156071
156119
156126
156040
156050
156052
156075
156108
156075
156064
156132
156171
156157
156098
156162
156138
156158
156157
156149
156165
156206
156186
156155
156187
156225
156252
156297
156266
156275
156316
156291
156307
156310
156304
156320
156396
156365
156386
156332
156279
156299
156369
156363
156298
156349
156414
156438
156487
156420
156490
156602
156555
156458
156437
156449
156382
156354
156386
156458
156531
156540
156508
156484
156490
156491
156431
156489
156461
156376
156420
156513
156565
156577
156548
156564
156400
156511
156564
156544
156610
156342
156422
156470
156412
156419
156405
156400
156499
156479
156472
156522
156590
156558
156441
156547
156471
156484
156524
156519
156472
156444
156455
156421
156448
156425
156416
156391
156565
156442
156468
156462
156536
156562
156422
156314
156319
156354
156394
156434
156495
156486
156430
156493
156482
156456
156501
156450
156449
156357
156442
156489
156512
156598
156421
156534
156446
156401
156472
156486
156472
156474
156434
156444
156479
156499
156470
156430
156419
156489
156575
156574
156519
156437
156356
156345
156359
156400
156410
156490
156591
156467
156524
156606
156488
156395
156348
156417
156492
156407
156429
156435
156339
156362
156194
156253
156257
156364
156388
156306
156398
156415
156427
156401
156378
156320
156355
156363
156406
156435
156414
156372
156318
156243
156233
156274
156269
156223
156285
156255
156287
156355
156369
156315
156221
156204
156249
156172
156181
156289
156218
156177
156194
156179
156029
156091
156059
156118
156279
156217
156200
156204
156187
156109
156046
156047
156056
156029
156058
155978
156091
156113
156092
156011
155967
156053
156016
155954
155941
155964
155959
155818
155862
155974
155823
155831
155869
155838
155842
155847
155866
155838
155934
155967
155836
155685
155660
155724
155697
155564
155637
155805
155920
155824
155643
155730
155791
155708
155612
155598
155616
155653
155614
155634
155578
155562
155559
155530
155531
155498
155570
155482
155441
155477
155427
155487
155497
155409
155356
155293
155368
155362
155331
155371
155325
155338
155299
155220
155125
155100
155198
155241
155269
155289
155301
155272
155193
155152
155189
155208
155170
155240
155206
155127
155058
154997
155031
155101
155075
155015
155005
154950
154955
155017
154950
155004
154964
154851
154968
154901
154906
154890
154907
154869
154810
154841
154834
154807
154748
154698
154704
154709
154747
154770
154756
154869
154788
154723
154661
154630
154682
154672
154602
154592
154521
154590
154688
154604
154535
154486
154517
154542
154527
154518
154421
154398
154331
154270
154283
154310
154328
154313
154312
154312
154309
154339
154240
154266
154196
154098
154135
154212
154248
154249
154100
154119
154098
154068
154060
154017
153954
154017
154004
153946
153964
153925
153822
153876
153941
153918
153961
153970
153958
154014
153987
154053
154004
153987
153980
153836
153836
153801
153770
153743
153636
153578
153556
153515
153345
153246
153259
153260
153182
153230
153223
153182
153202
153150
153158
153250
153336
153291
153231
153296
153326
153377
153327
153298
153302
153233
153337
153318
153205
153328
153219
153191
153183
153089
153071
153118
153243
153168
153216
153233
153201
153150
153035
153015
153016
152961
152954
152966
153002
153073
153079
153050
152946
152901
152931
152859
152960
152999
152928
152922
153009
152907
152830
152753
152730
152778
152760
152847
152837
152824
152754
152716
152655
152695
152694
152574
152577
152568
152585
152708
152707
152694
152607
152603
152607
152538
152639
152711
152626
152569
152529
152422
152389
152435
152452
152458
152539
152429
152391
152455
152413
152392
152372
152408
152461
152478
152403
152398
152381
152378
152258
152274
152296
152298
152310
152194
152278
152245
152285
152326
152277
152302
152259
152185
152161
152109
152132
152078
152173
152201
152062
152130
152024
151970
151902
151905
151905
151912
151944
151978
151949
152004
151931
151869
151932
151906
151844
151867
151860
151796
151738
151722
151709
151728
151730
151636
151675
151704
151652
151646
151606
151681
151686
151764
151833
151678
151652
151597
151577
151617
151639
151556
151541
151426
151403
151385
151531
151623
151603
151580
151553
151475
151446
151420
151400
151426
151434
151395
151376
151332
151298
151424
151360
151396
151425
151404
151476
151369
151350
151359
151339
151335
151297
151279
151320
151288
151404
151344
151323
151235
151247
151220
151236
151280
151243
151089
151098
151200
151279
151259
151148
151203
151109
151066
151061
151052
151084
151040
151073
151169
151132
151142
151035
150979
150973
150963
150969
151044
151052
150976
150967
151028
151084
150996
150910
150894
150948
150972
150924
150918
150930
150915
150803
150799
150816
150878
151004
151048
151036
151050
150998
150972
150852
150734
150754
150842
150887
150793
150873
150827
150752
150750
150726
150736
150731
150760
150819
150817
150709
150729
150729
150762
150726
150716
150662
150627
150637
150726
150694
150746
150643
150658
150623
150548
150526
150465
150613
150690
150735
150781
150697
150681
150593
150538
150619
150612
150560
150546
150562
150663
150617
150507
150471
150459
150526
150600
150578
150577
150520
150531
150494
150531
150481
150486
150539
150460
150430
150478
150536
150526
150484
150441
150436
150354
150272
150336
150430
150486
150558
150589
150558
150548
150507
150428
150427
150389
150408
150451
150360
150415
150444
150459
150392
150408
150443
150395
150360
150357
150363
150327
150332
150354
150338
150355
150260
150323
150324
150441
150424
150412
150357
150359
150292
150359
150409
150288
150402
150353
150309
150278
150310
150269
150313
150368
150447
150398
150400
150349
150329
150332
150346
150402
150363
150327
150251
150282
150327
150297
150288
150305
150295
150289
150259
150275
150332
150140
150113
150240
150246
150188
150187
150204
150211
150200
150231
150205
150124
150124
150143
150187
150285
150310
150272
150224
150302
150213
150198
150163
150145
150303
150262
150209
150164
150181
150216
150219
150240
150213
150309
150191
150262
150256
150144
150157
150172
150164
150200
150332
150441
150388
150413
150400
150279
150234
150160
150108
150220
150124
149949
149855
149716
149757
149845
149851
149863
149736
149822
149945
150061
149873
149849
149941
149943
149960
149978
150037
150182
150324
150188
150145
150138
150147
150078
150094
150003
150018
150092
150114
150173
150166
150080
150166
150113
150160
150203
150174
150094
150140
150214
150281
150295
150268
150213
150222
150244
150076
150066
150074
150180
150250
150219
150233
150279
150272
150271
150266
150278
150324
150279
150317
150238
150181
150180
150135
150159
150145
150139
150224
150271
150235
150205
150272
150235
150179
150175
150236
150338
150300
150276
150257
150207
150216
150233
150280
150293
150283
150208
150219
150348
150381
150421
150441
150423
150386
150382
150315
150341
150366
150360
150412
150388
150344
150320
150284
150208
150238
150292
150293
150341
150398
150400
150397
150409
150526
150517
150359
150338
150376
150396
150469
150403
150439
150372
150352
150405
150450
150396
150349
150359
150307
150345
150361
150327
150384
150427
150431
150415
150427
150276
150330
150315
150320
150344
150337
150380
150326
150324
150292
150252
150272
150312
150359
150377
150328
150269
150258
150267
150280
150254
150371
150346
150372
150378
150327
150215
150223
150308
150331
150302
150295
150287
150316
150292
150270
150219
150174
150245
150262
150242
150305
150312
150310
150369
150451
150454
150440
150386
150334
150333
150332
150350
150338
150357
150354
150331
150337
150371
150389
150425
150439
150418
150275
150315
150370
150386
150344
150403
150487
150507
150395
150288
150325
150394
150392
150408
150383
150417
150516
150504
150507
150478
150452
150448
150441
150419
150366
150338
150417
150427
150467
150476
150585
150555
150499
150474
150389
150459
150466
150378
150345
150379
150486
150454
150368
150434
150464
150486
150433
150511
150439
150445
150554
150513
150472
150401
150439
150476
150538
150542
150532
150498
150528
150552
150511
150488
150439
150461
150549
150454
150597
150611
150588
150589
150516
150525
150515
150466
150463
150516
150564
150543
150563
150591
150526
150590
150540
150571
150581
150543
150572
150602
150565
150677
150645
150606
150608
150635
150609
150635
150595
150508
150530
150574
150670
150761
150627
150642
150641
150662
150759
150683
150608
150718
150730
150694
150579
150595
150643
150730
150678
150590
150611
150696
150710
150669
150619
150673
150715
150741
150703
150693
150714
150736
150692
150682
150657
150675
150652
150681
150698
150615
150607
150714
150705
150691
150752
150747
150790
150733
150732
150738
150689
150762
150775
150787
150767
150794
150711
150769
150895
150726
150751
150811
150818
150893
150774
150730
150787
150852
150925
150843
150896
150874
150872
150852
150799
150776
150848
150851
150799
150664
150695
150763
150784
150864
150873
150803
150755
150777
150941
150884
150772
150812
150922
150976
150951
150910
150939
150933
150957
150834
150859
150990
151019
150978
151008
151042
151032
151031
150978
150965
151001
151026
151001
150953
150846
150899
150949
150926
150909
150870
150935
150971
150904
150945
150901
150944
150925
150861
150945
150950
150871
150924
150932
150844
150917
150963
150933
150998
151016
151019
151042
151054
151020
151011
151002
151034
151000
150998
150915
150955
151007
151022
151025
150956
150869
150872
150923
151000
151028
151005
151029
151093
151132
151096
151107
151170
151088
151132
151138
151110
151135
151119
151130
151141
151100
151034
151004
150894
150832
150753
150720
150732
150735
150702
150692
150633
150708
150700
150836
150804
150817
150821
150760
150792
150826
150881
151045
151059
150971
150940
150969
151012
151036
151010
150991
151047
151097
151093
151102
151127
151158
151179
151151
151087
151042
151031
151034
151154
151204
151130
151259
151168
151216
151184
151179
151191
151108
151108
151103
151094
151152
151132
151229
151310
151331
151227
151199
151267
151231
151303
151376
151357
151365
151300
151205
151250
151257
151234
151206
151259
151352
151368
151316
151275
151261
151335
151320
151341
151367
151341
151454
151464
151384
151358
151375
151323
151341
151385
151439
151385
151433
151431
151526
151536
151398
151421
151426
151443
151504
151493
151480
151518
151548
151439
151469
151524
151510
151479
151512
151538
151490
151448
151435
151496
151534
151663
151569
151465
151491
151541
151631
151621
151592
151619
151535
151522
151545
151558
151557
151574
151604
151637
151607
151576
151583
151515
151494
151536
151519
151527
151473
151567
151543
151499
151514
151526
151483
151476
151488
151420
151500
151525
151478
151455
151492
151508
151448
151440
151475
151489
151530
151581
151669
151596
151483
151526
151582
151571
151487
151557
151631
151637
151637
151545
151485
151488
151535
151583
151599
151583
151621
151560
151573
151557
151461
151501
151529
151468
151506
151672
151800
151763
151765
151703
151654
151647
151636
151641
151663
151681
151756
151728
151746
151718
151698
151711
151815
151638
151617
151622
151656
151735
151769
151782
151701
151671
151669
151682
151654
151674
151808
151914
151787
151760
151737
151760
151697
151677
151687
151749
151855
151862
151806
151816
151781
151808
151780
151641
151772
151877
151827
151753
151788
151753
151640
151707
151768
151833
151882
151761
151878
151815
151819
151816
151723
151804
151907
151823
151808
151848
151906
151869
151909
151963
151888
151829
151885
151809
151823
151905
151911
151888
151907
151903
151924
151902
151915
151945
151821
151832
151879
151981
152091
152063
151970
151969
151913
151983
151999
152016
152036
151940
151930
151897
151895
152015
151974
151949
151968
152078
152120
152139
152169
152163
151982
151971
151939
151870
151883
152000
152128
152168
152164
152175
152024
152039
152141
152056
152149
152064
152112
152151
152049
152016
152058
152060
152087
152097
152076
152141
152246
152201
152137
152101
152035
152122
152272
152231
152130
152100
152111
152089
152089
152159
152155
152165
152236
152187
152204
152173
152267
152189
152149
152181
152182
152147
152238
152238
152191
152143
152242
152333
152338
152361
152307
152247
152142
152227
152143
152072
152220
152364
152397
152331
152321
152350
152303
152300
152320
152326
152381
152419
152477
152259
152234
152259
152204
152188
152307
152237
152279
152292
152254
152349
152365
152449
152482
152372
152380
152334
152377
152455
152468
152441
152438
152411
152405
152374
152403
152479
152535
152614
152625
152470
152299
152378
152335
152370
152353
152347
152443
152389
152482
152568
152500
152519
152607
152459
152394
152358
152400
152381
152406
152413
152414
152474
152540
152493
152506
152581
152687
152619
152532
152539
152526
152481
152429
152472
152544
152588
152693
152658
152571
152569
152463
152477
152466
152429
152401
152401
152492
152600
152623
152594
152524
152495
152570
152531
152497
152497
152506
152573
152681
152649
152508
152429
152536
152580
152505
152612
152790
152894
152783
152839
152811
152781
152706
152674
152604
152622
152773
152897
152893
152896
152704
152605
152615
152553
152471
152425
152391
152378
152310
152319
152355
152367
152310
152326
152389
152385
152466
152506
152518
152541
152515
152638
152690
152741
152737
152640
152637
152666
152692
152723
152674
152704
152654
152740
152736
152786
152823
152768
152669
152647
152673
152757
152886
152801
152727
152748
152778
152816
152881
152855
152701
152771
152759
152835
152778
152753
152795
152769
152742
152769
152724
152796
152879
152914
152932
152903
152815
152830
152920
153026
153022
152908
152769
152828
152846
152825
152904
152999
152971
152927
152917
152979
153003
152958
152916
152871
152894
152952
152981
152943
152912
153003
152995
153012
153055
153066
153018
153001
152953
153003
152971
153022
152973
153079
153149
153098
153192
153091
153052
153033
153054
153093
153156
153160
153197
153146
153099
153034
153149
153145
153169
153196
153198
153169
153220
153156
153166
153112
153149
153211
153092
153008
153113
153193
153175
153145
153115
153123
153153
153247
153267
153223
153122
153012
152991
153131
153276
153263
153215
153268
153239
153241
153219
153202
153020
153112
153125
153171
153215
153262
153138
153190
153149
153136
153144
153080
153188
153066
153055
153145
153149
153140
153096
153216
153203
153158
153234
153196
153130
153221
153239
153272
153190
153156
153083
153007
153099
153228
153189
153177
153127
153115
153119
153244
153176
153074
153181
153266
153265
153273
153202
153238
153202
153097
153090
153076
153168
153214
153248
153197
153174
153168
153158
153126
153191
153204
153238
153237
153227
153148
153127
153078
153050
153028
153072
152996
153046
153185
153289
153305
153227
153270
153220
153199
153212
153194
153213
153200
153195
153190
153122
153203
153203
153263
153270
153203
153174
153190
153207
153171
153172
153203
153244
153212
153243
153201
153208
153213
153223
153293
153348
153389
153397
153336
153282
153181
153254
153332
153320
153308
153339
153370
153301
153334
153357
153390
153476
153442
153415
153345
153274
153240
153317
153395
153343
153393
153387
153411
153411
153513
153579
153402
153400
153426
153440
153383
153449
153494
153486
153500
153477
153469
153350
153379
153409
153382
153406
153405
153483
153489
153428
153544
153607
153504
153449
153453
153478
153531
153603
153602
153469
153474
153517
153492
153610
153465
153505
153522
153560
153509
153469
153540
153525
153545
153492
153546
153639
153707
153663
153623
153566
153577
153566
153626
153629
153650
153681
153645
153628
153673
153712
153741
153694
153751
153686
153601
153612
153727
153749
153670
153598
153658
153634
153643
153616
153629
153743
153786
153886
153903
153743
153626
153625
153713
153643
153583
153619
153707
153778
153855
153781
153832
153820
153718
153663
153624
153630
153725
153772
153817
153809
153789
153759
153830
153797
153722
153757
153818
153844
153787
153719
153771
153741
153730
153785
153802
153744
153772
153879
153889
153844
153887
153844
153787
153718
153687
153711
153890
153899
153829
153780
153886
153853
153845
153847
153705
153746
153783
153818
153841
153794
153836
153898
153943
153923
153943
153917
153830
153803
153847
153842
153851
153832
153925
153870
153778
153946
153844
153934
153937
153916
153958
154042
153941
153926
153930
153945
154045
154067
154091
154079
154141
154154
154156
154125
154132
154107
154007
153923
153879
153785
153761
153745
153699
153650
153610
153579
153580
153582
153603
153594
153652
153619
153652
153747
153759
153792
153984
153926
153880
153892
153982
154045
154117
154054
153851
153853
153904
153941
153960
154026
154093
154141
154129
154144
154129
154060
154060
154032
154012
154010
154059
154061
154042
153988
154037
154083
154123
154109
154137
154084
154069
154085
154054
154145
154056
153986
154007
154065
154078
154086
154153
154058
154047
154087
154105
154231
154333
154299
154302
154210
154206
154193
154246
154256
154234
154200
154184
154217
154141
154139
154245
154304
154212
154221
154178
154196
154306
154342
154262
154167
154191
154242
154219
154202
154091
154160
154192
154263
154392
154340
154421
154321
154303
154314
154298
154369
154390
154334
154341
154349
154383
154483
154399
154440
154333
154375
154433
154385
154312
154324
154431
154548
154519
154487
154382
154366
154407
154413
154400
154292
154359
154360
154324
154269
154313
154537
154608
154521
154447
154376
154318
154276
154379
154321
154323
154412
154492
154505
154443
154438
154311
154301
154353
154303
154219
154292
154336
154403
154373
154263
154367
154426
154403
154374
154364
154364
154394
154376
154378
154312
154345
154369
154376
154263
154319
154342
154399
154447
154415
154332
154367
154403
154452
154423
154345
154435
154349
154352
154349
154289
154367
154510
154419
154400
154353
154398
154438
154385
154366
154398
154421
154461
154611
154639
154570
154491
154505
154485
154534
154415
154439
154481
154465
154522
154476
154500
154509
154403
154402
154434
154503
154608
154605
154532
154457
154491
154511
154539
154556
154493
154484
154448
154550
154562
154521
154525
154473
154557
154649
154561
154543
154429
154535
154555
154542
154591
154542
154489
154588
154541
154588
154590
154570
154541
154553
154592
154622
154628
154598
154540
154582
154561
154633
154560
154510
154553
154557
154662
154634
154555
154549
154640
154581
154614
154727
154726
154661
154660
154588
154509
154564
154729
154641
154671
154692
154692
154682
154651
154611
154657
154706
154678
154711
154685
154635
154604
154654
154714
154787
154674
154690
154776
154746
154632
154617
154778
154736
154791
154750
154638
154753
154789
154737
154761
154822
154828
154708
154741
154768
154788
154782
154774
154836
154854
154810
154786
154811
154781
154750
154713
154745
154749
154728
154634
154688
154762
154789
154756
154879
154817
154868
154981
154854
154835
154784
154828
154802
154848
154938
154924
154843
154798
154822
154822
154841
154956
154919
154880
154821
154760
154901
154862
154781
154851
154824
154798
154779
154817
154821
154783
154806
154823
154797
154768
154733
154796
154715
154804
155021
154910
154893
154931
154862
154778
154793
154790
154823
154843
154830
154824
154825
154844
154815
154805
154801
154829
154904
154906
154818
154822
154809
154832
154921
154888
154821
154879
154854
154780
154778
154806
154863
154922
154941
154873
154941
154920
154947
154909
154927
154940
154986
154973
154953
154954
154950
155013
155026
155006
154997
154941
154879
154922
154985
154959
154989
154891
154831
154831
154843
154854
154891
155005
155135
155086
155055
155015
154975
154967
154997
154958
154983
154985
155025
155029
155034
154967
154878
154969
155025
155053
155029
155071
155003
154961
154953
154971
154992
154973
155032
154966
154982
155012
155071
155064
155008
155054
155089
155099
155133
155160
155182
155159
155168
155161
155229
155382
155348
155371
155387
155280
155240
155172
155156
155070
154946
154906
154873
154729
154691
154828
154838
154921
154921
154869
154823
154887
154910
155027
155121
155034
155073
155125
155179
155193
155109
155207
155177
155270
155288
155247
155263
155297
155190
155155
155170
155209
155235
155319
155319
155242
155234
155267
155276
155254
155290
155268
155236
155332
155338
155343
155443
155353
155343
155329
155321
155257
155272
155362
155371
155313
155395
155353
155369
155293
155251
155339
155392
155351
155408
155426
155418
155398
155387
155389
155362
155378
155346
155288
155350
155359
155296
155346
155342
155376
155473
155535
155548
155402
155350
155415
155406
155511
155561
155519
155456
155474
155538
155410
155383
155380
155487
155488
155462
155474
155390
155446
155458
155379
155374
155472
155577
155663
155688
155659
155495
155405
155459
155549
155558
155493
155516
155524
155608
155608
155570
155651
155674
155603
155596
155625
155605
155620
155582
155568
155491
155441
155400
155403
155481
155581
155715
155658
155594
155515
155465
155451
155557
155581
155573
155470
155473
155447
155442
155481
155437
155409
155430
155383
155452
155514
155559
155516
155523
155522
155486
155437
155458
155407
155396
155376
155328
155454
155449
155498
155506
155334
155429
155457
155468
155455
155539
155577
155529
155525
155454
155510
155376
155405
155457
155441
155419
155475
155555
155522
155509
155540
155533
155507
155422
155424
155479
155536
155618
155467
155390
155420
155435
155448
155535
155501
155393
155377
155442
155474
155438
155444
155448
155539
155479
155510
155571
155534
155415
155448
155410
155429
155443
155407
155459
155514
155527
155501
155560
155578
155458
155428
155411
155403
155424
155404
155522
155634
155551
155416
155425
155521
155538
155434
155434
155337
155327
155432
155538
155567
155450
155438
155490
155474
155578
155475
155433
155503
155510
155557
155465
155483
155477
155450
155433
155445
155487
155639
155737
155475
155423
155599
155568
155548
155590
155613
155605
155565
155576
155566
155527
155624
155606
155524
155510
155555
155538
155572
155606
155570
155599
155537
155590
155580
155520
155467
155550
155672
155736
155665
155595
155570
155650
155593
155573
155571
155590
155573
155568
155578
155504
155610
155660
155693
155631
155615
155627
155605
155585
155545
155532
155590
155680
155711
155709
155688
155608
155518
155605
155643
155480
155558
155587
155631
155680
155586
155656
155763
155719
155670
155577
155600
155685
155791
155804
155657
155704
155683
155666
155675
155581
155579
155623
155660
155768
155713
155753
155759
155693
155704
155593
155608
155608
155617
155628
155559
155644
155740
155723
155732
155719
155735
155658
155595
155678
155652
155691
155720
155665
155644
155560
155572
155598
155602
155642
155666
155712
155713
155693
155675
155628
155590
155635
155686
155714
155655
155701
155720
155687
155645
155662
155699
155730
155741
155751
155631
155690
155667
155614
155638
155650
155687
155765
155828
155811
155678
155662
155724
155731
155807
155771
155774
155763
155729
155715
155648
155723
155719
155741
155771
155643
155633
155679
155651
155632
155682
155668
155695
155737
155697
155701
155753
155739
155770
155742
155697
155793
155775
155747
155770
155781
155712
155751
155800
155872
155803
155872
155865
155828
155795
155662
155727
155788
155729
155770
155739
155853
155791
155766
155793
155806
155797
155823
155875
155944
155873
155895
155949
156015
155952
155827
155835
155841
155860
155864
155851
155766
155674
155502
155496
155451
155433
155525
155562
155519
155375
155490
155561
155602
155630
155653
155727
155759
155808
155770
155703
155842
155870
155757
155797
155792
155773
155739
155692
155747
155725
155794
155853
155834
155907
155830
155806
155780
155790
155799
155769
155792
155719
155815
155887
155893
155932
155907
155848
155800
155818
155850
155832
155842
155828
155783
155845
155872
155870
155828
155828
155931
155929
155949
155998
155919
155932
155970
155908
155776
155743
155708
155752
155857
155930
155882
155897
155879
155867
155817
155823
155905
155864
155831
155904
155937
155937
155997
155968
155949
155899
155910
155902
155892
155920
155911
155862
155827
155928
155952
155970
156043
155978
155953
155935
155925
155927
155925
155899
155961
155958
155952
155989
155993
156068
156104
156033
155918
155914
156022
155989
156055
156080
156006
156064
156053
156050
156050
156221
156078
156022
156078
156055
156079
156027
156013
155992
155957
155891
155926
155961
155988
156052
156062
156033
155994
155927
155916
155864
155841
155882
155981
156069
156012
156002
155979
155961
155997
155969
155875
155820
155868
155898
155937
156025
156062
156087
156005
155879
155922
155928
155954
155966
155976
156005
156031
155937
155944
156053
155991
155904
155955
155993
156041
156006
156005
156026
156033
155953
155934
155958
156012
155982
156021
156130
156005
155991
156044
156005
155987
155959
155990
156072
156095
156053
156009
156117
156141
156099
156013
155885
156026
156103
156082
156092
156087
156110
156081
156086
156024
156024
156118
156018
156050
156072
156039
156022
156039
155961
155930
155927
156009
156117
156104
156083
156033
156075
156030
156012
156096
156008
156063
156021
156036
156051
156001
155998
156035
156103
156123
156023
156027
155987
155988
156044
156118
156076
156035
155966
156022
155981
156073
156027
156070
156126
156123
156165
156011
156065
156096
156024
156122
156134
156107
156134
156118
156110
156149
156172
156131
156063
156083
156119
156136
156144
156184
156212
156198
156219
156249
156128
156169
156029
156078
156128
156159
156175
156163
156158
156181
156176
156186
156180
156159
156173
156246
156236
156200
156108
156121
156165
156193
156187
156225
156214
156218
156171
156203
156113
156136
156195
156132
156068
156167
156229
156186
156182
156195
156181
156203
156173
156225
156221
156262
156335
156284
156242
156226
156180
156085
156144
156216
156264
156268
156178
156183
156247
156221
156240
156258
156228
156203
156298
156271
156259
156273
156269
156264
156195
156211
156140
156201
156235
156315
156331
156256
156252
156229
156225
156246
156231
156163
156210
156218
156307
156204
156245
156198
156114
156156
156199
156347
156342
156274
156309
156276
156178
156084
156060
156055
156089
156151
156216
156186
156146
156247
156263
156174
156190
156216
156121
156088
156107
156171
156227
156193
156204
156297
156270
156285
156241
156348
156319
156340
156321
156274
156291
156275
156174
156209
156223
156246
156272
156326
156359
156432
156440
156278
156282
156240
156152
156223
156360
156389
156404
156345
156342
156303
156360
156346
156253
156283
156323
156291
156238
156243
156298
156315
156299
156299
156252
156232
156289
156291
156279
156286
156397
156274
156179
156272
156321
156319
156240
156283
156272
156263
156314
156216
156267
156315
156248
156302
156344
156389
156245
156211
156283
156221
156257
156292
156272
156316
156409
156468
156507
156504
156468
156423
156386
156451
156386
156427
156408
156341
156375
156296
156349
156214
156137
156039
155898
155901
155880
155926
155990
156091
156125
156149
156046
156087
156104
156100
156243
156240
156167
156305
156398
156323
156302
156291
156244
156298
156377
156464
156569
156434
156294
156260
156238
156241
156311
156273
156412
156503
156464
156486
156604
156442
156350
156361
156349
156425
156479
156499
156511
156422
156504
156465
156477
156482
156435
156454
156495
156441
156416
156410
156442
156497
156375
156331
156332
156397
156521
156658
156610
156615
156613
156535
156441
156480
156367
156458
156514
156520
156399
156283
156426
156554
156712
156786
156616
156557
156542
156552
156562
156525
156578
156527
156542
156575
156549
156609
156616
156504
156461
156512
156668
156603
156670
156662
156654
156615
156612
156652
156761
156701
156670
156656
156630
156732
156689
156671
156673
156657
156701
156648
156705
156715
156674
156662
156670
156722
156717
156771
156744
156706
156761
156628
156658
156568
156554
156524
156644
156771
156763
156674
156613
156599
156547
156541
156469
156493
156596
156619
156664
156696
156739
156705
156584
156617
156669
156687
156603
156613
156626
156561
156543
156607
156643
156606
156588
156586
156545
156604
156608
156542
156570
156556
156561
156570
156617
156616
156521
156495
156559
156593
156708
156649
156570
156622
156638
156579
156557
156549
156652
156652
156639
156626
156600
156559
156528
156465
156572
156625
156671
156649
156606
156607
156572
156520
156494
156610
156563
156652
156674
156602
156455
156453
156547
156526
156519
156511
156611
156648
156655
156520
156496
156511
156481
156569
156664
156671
156559
156486
156624
156664
156574
156489
156503
156501
156492
156502
156532
156517
156502
156526
156550
156484
156505
156404
156401
156423
156476
156538
156532
156529
156495
156474
156406
156385
156324
156356
156374
156439
156481
156490
156600
156473
156435
156448
156361
156409
156480
156532
156536
156485
156493
156469
156381
156376
156442
156414
156434
156386
156360
156387
156372
156323
156275
156273
156248
156284
156356
156290
156248
156195
156257
156357
156422
156414
156463
156377
156315
156240
156290
156237
156286
156294
156280
156243
156184
156210
156218
156205
156172
156145
156208
156153
156125
156144
156055
156065
156146
156167
156199
156148
156129
156090
156007
156046
156005
156041
156101
156056
156085
156017
155964
155987
156001
155989
155977
155941
155942
155978
155986
156007
155982
156039
156017
155889
155832
155819
155859
155889
155915
155841
155905
155899
155900
155910
155832
155792
155768
155728
155814
155766
155868
155902
155783
155758
155717
155586
155680
155689
155706
155732
155727
155701
155607
155617
155661
155712
155724
155747
155689
155550
155635
155625
155630
155603
155573
155535
155586
155597
155535
155531
155551
155553
155450
155410
155374
155483
155499
155535
155487
155347
155226
155293
155366
155320
155221
155265
155349
155423
155477
155434
155490
155446
155433
155384
155254
155224
155316
155289
155366
155265
155228
155285
155241
155196
155156
155160
155167
155235
155128
155137
155109
155066
155007
155007
154897
155017
155065
155123
155076
155044
155173
155066
154989
154991
154867
154898
154865
154880
154911
154904
154887
154792
154807
154850
154830
154850
154793
154883
154778
154608
154628
154700
154622
154582
154525
154505
154497
154577
154601
154536
154505
154460
154316
154385
154430
154417
154507
154551
154445
154377
154349
154333
154340
154312
154343
154430
154395
154299
154349
154403
154474
154510
154467
154450
154275
154355
154321
154230
154171
154073
154068
154018
153905
153758
153655
153699
153676
153659
153653
153658
153557
153664
153752
153655
153609
153812
153826
153805
153928
153821
153766
153798
153863
153886
153881
153902
153860
153807
153742
153713
153715
153748
153659
153675
153748
153727
153639
153639
153674
153591
153578
153595
153606
153657
153524
153514
153551
153517
153574
153516
153583
153594
153524
153560
153401
153412
153396
153371
153380
153402
153467
153430
153257
153263
153322
153459
153349
153291
153241
153276
153300
153256
153278
153268
153206
153158
153104
153141
153168
153189
153145
153107
153160
153050
153039
153106
153021
153029
153034
153001
152983
153005
152954
152986
152959
152935
152859
152845
152928
152893
152919
152945
152920
152832
152742
152726
152737
152790
152883
152834
152773
152767
152761
152690
152646
152612
152554
152600
152623
152694
152749
152758
152694
152633
152557
152605
152678
152649
152524
152464
152473
152461
152432
152404
152385
152329
152365
152404
152409
152406
152383
152389
152368
152347
152177
152286
152346
152247
152250
152198
152212
152234
152174
152217
152081
152109
152105
152056
152076
152081
152136
152067
152018
151940
151943
151955
151978
152051
152034
152000
152025
151982
151789
151833
151852
151814
151867
151821
151852
151794
151799
151869
151874
151776
151760
151839
151760
151708
151792
151727
151747
151752
151708
151636
151578
151670
151591
151529
151570
151612
151554
151569
151583
151549
151533
151638
151565
151533
151462
151452
151477
151450
151507
151469
151266
151272
151270
151285
151304
151432
151489
151518
151462
151393
151306
151261
151245
151288
151344
151291
151264
151194
151178
151206
151226
151259
151285
151287
151203
151159
151181
151113
151143
151139
151130
151132
151119
151079
151167
151103
151088
151166
151100
151022
150901
150862
150866
150868
151002
151078
151122
150993
150978
150897
150949
151066
151080
151006
150940
150973
150917
150897
150846
150834
150890
150917
150725
150672
150695
150681
150826
150813
150781
150786
150688
150668
150714
150601
150542
150472
150602
150757
150749
150695
150647
150680
150700
150650
150530
150474
150547
150635
150672
150576
150557
150611
150598
150533
150538
150464
150449
150473
150525
150507
150484
150483
150480
150422
150428
150418
150437
150456
150449
150355
150345
150436
150468
150350
150233
150224
150290
150254
150347
150408
150349
150422
150407
150309
150337
150289
150298
150312
150322
150357
150247
150183
150172
150182
150152
150161
150177
150225
150239
150220
150162
150168
150075
150063
150047
150088
150199
150250
150200
150158
150044
150034
150101
150116
150083
150061
149985
150030
150120
150055
149987
149963
150035
150144
150197
150112
150185
150117
150054
150029
150031
149951
150002
150024
150031
149997
150065
150057
150041
150081
149979
149943
149939
150009
149947
149908
149924
150018
150021
150077
150046
149921
149935
149898
149954
149919
149938
149985
149852
149798
149844
149894
149954
149930
149877
149809
149826
149878
149864
149882
149881
149806
149728
149773
149783
149871
149890
149806
149821
149784
149695
149696
149663
149683
149704
149679
149764
149832
149910
149842
149698
149748
149648
149595
149617
149635
149674
149694
149646
149714
149713
149729
149698
149644
149655
149734
149780
149873
149873
149922
149830
149768
149795
149736
149710
149716
149623
149608
149658
149583
149512
149349
149208
149137
149089
149198
149264
149331
149378
149267
149188
149238
149303
149416
149381
149396
149444
149491
149533
149565
149523
149505
149512
149550
149552
149568
149578
149490
149562
149631
149537
149530
149513
149558
149599
149591
149599
149616
149595
149494
149420
149396
149450
149571
149582
149587
149593
149593
149490
149538
149500
149528
149528
149513
149502
149480
149511
149605
149633
149586
149461
149457
149463
149496
149548
149537
149542
149564
149572
149584
149505
149486
149447
149434
149477
149492
149627
149710
149695
149581
149471
149564
149464
149470
149560
149619
149644
149642
149565
149502
149432
149475
149516
149487
149459
149480
149506
149545
149602
149638
149613
149579
149614
149563
149657
149564
149564
149562
149557
149610
149653
149707
149562
149587
149608
149561
149656
149638
149636
149665
149706
149644
149648
149664
149604
149543
149643
149644
149637
149639
149545
149493
149451
149439
149471
149505
149642
149673
149595
149546
149590
149504
149494
149511
149443
149494
149530
149594
149556
149521
149336
149431
149593
149640
149519
149536
149605
149604
149608
149460
149475
149452
149510
149563
149459
149369
149466
149458
149448
149537
149503
149458
149349
149354
149391
149473
149532
149562
149566
149579
149532
149477
149416
149376
149423
149425
149527
149384
149406
149487
149481
149459
149486
149474
149485
149331
149328
149424
149546
149507
149508
149471
149473
149447
149404
149410
149426
149450
149519
149546
149432
149430
149409
149471
149418
149386
149414
149378
149534
149594
149491
149488
149410
149409
149439
149525
149530
149536
149567
149509
149362
149421
149344
149429
149446
149391
149403
149379
149421
149463
149439
149522
149427
149460
149485
149453
149464
149488
149408
149460
149362
149369
149373
149430
149374
149365
149355
149399
149430
149447
149366
149362
149383
149456
149467
149371
149377
149493
149522
149457
149448
149377
149325
149203
149385
149518
149414
149400
149463
149391
149263
149327
149281
149287
149404
149369
149366
149410
149310
149300
149274
149329
149306
149294
149270
149286
149311
149283
149354
149376
149281
149324
149316
149345
149211
149115
149109
149189
149395
149420
149278
149194
149242
149209
149262
149175
149166
149229
149187
149253
149260
149137
149094
149155
149165
149105
149115
149200
149255
149248
149185
149240
149225
149177
149142
149058
149083
149166
149206
149141
149168
149188
149075
149067
149050
149080
149172
149214
149118
148954
148998
149059
149114
149096
149075
148978
149013
149104
149149
149057
149079
149076
149002
149053
149092
149027
148972
148935
148953
148965
148949
148936
148960
149029
149156
149128
149072
149026
149029
149039
148991
148975
148921
148940
148925
148902
148791
148869
148932
148973
148952
148949
148978
148949
148887
148907
148855
148805
148760
148805
148877
149072
149020
148915
148829
148805
148806
148857
148805
148740
148754
148794
148739
148775
148770
148807
148754
148771
148757
148814
148796
148743
148767
148774
148847
148656
148635
148659
148646
148699
148733
148743
148657
148710
148675
148602
148667
148729
148761
148686
148643
148625
148591
148663
148608
148528
148534
148676
148686
148576
148623
148555
148546
148519
148381
148396
148394
148454
148476
148495
148568
148486
148385
148340
148336
148326
148413
148377
148374
148408
148395
148431
148393
148312
148289
148207
148312
148326
148340
148320
148270
148313
148333
148336
148226
148130
148188
148282
148261
148230
148195
148149
148101
148195
148213
148111
148176
148267
148254
148237
148194
148180
148250
148297
148337
148317
148328
148259
148236
148274
148211
148325
148166
148014
148040
147866
147695
147595
147641
147740
147732
147715
147695
147607
147620
147609
147721
147792
147865
147823
147819
147920
147919
147919
147942
147905
147808
147791
147802
147859
147847
147937
147959
147956
147879
147767
147775
147896
147928
147859
147705
147691
147820
147889
147847
147770
147769
147814
147795
147812
147723
147660
147670
147670
147783
147835
147700
147704
147751
147837
147816
147778
147679
147595
147626
147621
147648
147658
147664
147693
147658
147722
147668
147646
147612
147518
147598
147723
147701
147737
147702
147640
147527
147547
147492
147446
147544
147606
147633
147548
147494
147497
147524
147500
147500
147489
147505
147490
147480
147607
147593
147545
147546
147512
147485
147427
147422
147565
147471
147411
147459
147439
147374
147418
147410
147316
147393
147457
147494
147434
147399
147527
147419
147454
147510
147408
147394
147366
147341
147366
147392
147382
147403
147430
147385
147248
147192
147281
147284
147260
147247
147295
147320
147300
147303
147256
147195
147187
147240
147256
147301
147194
147142
147109
147118
147186
147264
147213
147078
147093
147060
147127
147150
147227
147260
147187
147221
147189
147157
147084
147067
147077
146988
147012
147087
146987
146957
147046
147114
147091
147089
147087
147037
146982
146968
146895
146904
146885
146916
146987
146982
146989
147038
146999
146909
146898
146944
146939
146921
146800
146851
146914
146960
146899
146973
146932
146936
146928
147015
147093
146958
146889
146887
146949
146910
146833
146975
146924
146887
146912
146860
146923
146869
146907
146866
146780
146715
146831
146848
146846
146865
146884
146805
146779
146829
146826
146833
146772
146790
146813
146845
146868
146878
146967
146880
146772
146719
146776
146809
146870
146810
146811
146829
146771
146818
146803
146752
146776
146833
146885
146771
146802
146813
146743
146680
146682
146778
146756
146782
146768
146698
146725
146819
146816
146778
146683
146636
146708
146823
146789
146738
146796
146804
146826
146874
146799
146735
146635
146635
146721
146731
146844
146917
146807
146739
146721
146701
146706
146736
146775
146693
146717
146726
146728
146733
146577
146628
146706
146729
146698
146639
146699
146716
146619
146610
146587
146643
146645
146635
146648
146744
146735
146851
146759
146625
146603
146662
146683
146619
146623
146603
146630
146706
146716
146654
146678
146737
146668
146682
146669
146669
146658
146580
146601
146651
146704
146702
146664
146728
146641
146650
146693
146692
146691
146729
146658
146559
146656
146756
146806
146714
146780
146796
146720
146691
146686
146616
146520
146547
146624
146639
146725
146717
146690
146715
146662
146664
146612
146667
146752
146715
146653
146643
146645
146655
146588
146607
146700
146800
146835
146790
146691
146698
146686
146611
146605
146597
146598
146643
146742
146744
146765
146852
146732
146662
146621
146662
146576
146587
146591
146578
146698
146702
146683
146653
146786
146742
146742
146744
146736
146765
146685
146781
146849
146797
146718
146755
146756
146650
146662
146697
146764
146794
146823
146806
146750
146844
146815
146860
146857
146774
146764
146756
146771
146777
146728
146797
146789
146839
146739
146738
146835
146766
146647
146533
146603
146700
146745
146910
146974
146894
146720
146769
146804
146793
146769
146765
146703
146734
146789
146725
146776
146833
146850
146867
146731
146718
146729
146724
146713
146729
146845
146802
146737
146641
146717
146784
146729
146691
146786
146907
146899
146767
146849
146885
146808
146829
146900
146978
147090
147062
146986
146998
146881
146800
146734
146716
146685
146679
146678
146670
146516
146555
146576
146530
146536
146540
146558
146613
146620
146598
146755
146703
146756
146768
146738
146826
146834
146854
146852
146827
146839
146853
146907
146903
146891
146913
146920
146931
146918
146939
146976
147023
147016
146937
146880
146909
146923
146949
146908
146914
147024
147038
147106
147070
146948
147011
147030
147069
147117
147107
147134
147168
147089
147080
147009
147025
146982
147058
147135
147114
147104
147121
147168
147161
147159
147163
147154
147202
147168
147140
147099
147155
147199
147239
147279
147255
147245
147273
147241
147326
147358
147340
147293
147225
147198
147241
147230
147283
147284
147330
147349
147333
147296
147283
147317
147369
147404
147455
147484
147405
147474
147457
147463
147364
147390
147501
147515
147454
147401
147372
147396
147465
147419
147391
147407
147491
147520
147573
147498
147458
147518
147570
147646
147623
147558
147605
147629
147594
147639
147547
147459
147502
147571
147556
147559
147537
147474
147511
147542
147509
147567
147589
147573
147466
147376
147378
147521
147534
147593
147617
147598
147644
147626
147638
147573
147681
147627
147660
147572
147571
147565
147616
147684
147727
147633
147690
147666
147608
147660
147732
147781
147778
147713
147621
147539
147501
147642
147744
147783
147781
147716
147644
147697
147801
147779
147851
147835
147811
147686
147728
147780
147813
147914
147850
147721
147786
147789
147779
147840
147835
147844
147728
147765
147805
147870
147867
147902
147882
147943
147962
148019
147933
147925
147863
147776
147849
147911
147949
148005
148005
147924
147919
148029
148020
147970
147976
147925
147959
147968
148028
148049
148025
148074
148040
148029
148044
148007
148026
148024
147994
147977
148067
148099
148118
148161
148115
148148
148126
148079
148112
148212
148140
148045
148094
148117
148131
148191
148188
148184
148206
148198
148223
148239
148218
148203
148273
148241
148138
148195
148226
148299
148262
148241
148302
148157
148176
148177
148203
148192
148302
148401
148393
148363
148367
148304
148354
148337
148304
148293
148299
148284
148243
148333
148347
148372
148360
148344
148410
148430
148435
148446
148500
148461
148369
148372
148454
148475
148411
148474
148337
148389
148460
148554
148580
148511
148473
148534
148478
148474
148509
148492
148443
148560
148581
148482
148502
148469
148480
148488
148508
148523
148563
148664
148668
148547
148530
148538
148530
148559
148667
148763
148673
148635
148674
148693
148626
148550
148597
148740
148665
148774
148766
148786
148768
148778
148814
148817
148786
148797
148808
148826
148834
148820
148823
148745
148683
148731
148817
148871
148848
148779
148810
148793
148771
148779
148946
148910
148934
148969
148955
148900
148831
148822
148868
148877
148816
148871
148927
149008
148998
149010
148943
148963
149031
148981
149003
149088
149092
148947
148945
149037
149052
149059
149076
148990
149083
149133
149057
149041
149036
149074
149097
149142
149098
149084
149093
149146
149157
149185
149035
149093
149080
149022
149124
149103
149140
149138
149073
149125
149143
149191
149214
149224
149142
149040
149059
149253
149294
149316
149222
149222
149321
149240
149191
149158
149177
149235
149296
149269
149233
149170
149278
149403
149468
149424
149475
149529
149367
149376
149385
149456
149468
149484
149468
149307
149270
149270
149206
149090
148985
149021
149061
149085
149071
148999
148976
149137
149228
149129
149122
149246
149293
149342
149381
149386
149401
149356
149309
149367
149343
149341
149359
149486
149577
149549
149464
149493
149507
149504
149538
149573
149565
149654
149600
149531
149559
149568
149625
149658
149669
149750
149755
149701
149732
149703
149681
149637
149648
149670
149619
149655
149584
149650
149648
149638
149683
149755
149609
149681
149763
149814
149796
149836
149770
149692
149721
149735
149765
149804
149823
149752
149859
149868
149873
149940
149871
149870
149912
149801
149754
149901
149986
149920
149863
149871
149927
150016
149955
149941
149917
149932
149907
149992
150048
149941
150003
149937
149933
150038
150012
150063
149997
150078
150108
150096
150125
149999
150019
150056
150056
150166
150181
150127
150164
150108
150106
150147
150162
150210
150198
150237
150289
150320
150219
150206
150203
150195
150204
150238
150192
150198
150195
150153
150144
150164
150218
150221
150086
149959
149992
150164
150344
150330
150227
150110
150068
150079
150237
150210
150204
150226
150222
150230
150255
150189
150226
150203
150243
150178
150112
150114
150177
150308
150276
150264
150272
150175
150106
150157
150198
150321
150318
150342
150301
150220
150248
150265
150201
150262
150289
150303
150374
150340
150281
150340
150379
150298
150247
150235
150215
150288
150359
150453
150481
150375
150404
150426
150475
150456
150392
150500
150512
150478
150467
150453
150454
150467
150438
150470
150519
150568
150625
150652
150556
150456
150464
150463
150488
150480
150511
150585
150609
150659
150607
150534
150557
150549
150642
150640
150627
150664
150652
150631
150667
150613
150690
150709
150652
150748
150792
150782
150706
150700
150643
150687
150720
150786
150754
150766
150666
150707
150815
150739
150795
150786
150801
150827
150853
150799
150764
150780
150798
150870
150862
150901
150900
150858
150858
150840
150906
150865
150923
150910
150943
150873
150879
150883
150824
150879
150873
151009
151071
151026
150986
150954
150906
150910
150904
150998
151062
151022
151080
151080
151070
151107
151037
150982
150993
150933
151036
151083
151095
151088
151024
151010
151034
151013
151098
151129
151119
151145
151099
151119
151016
150978
151072
151030
151093
151206
151071
151137
151120
151151
151215
151214
151156
151107
151141
151166
151084
151183
151230
151216
151171
151133
151123
151158
151138
151112
151165
151218
151311
151349
151357
151286
151210
151176
151235
151256
151190
151158
151151
151179
151338
151368
151372
151315
151295
151298
151273
151377
151325
151294
151368
151314
151333
151243
151200
151270
151305
151268
151349
151436
151374
151317
151266
151297
151295
151293
151265
151400
151412
151402
151424
151350
151335
151397
151398
151295
151324
151376
151411
151413
151408
151422
151451
151442
151381
151342
151343
151382
151497
151474
151561
151551
151460
151359
151366
151371
151295
151511
151521
151551
151498
151474
151485
151426
151405
151550
151509
151578
151612
151587
151569
151559
151495
151476
151472
151501
151419
151489
151606
151598
151552
151510
151493
151548
151590
151584
151538
151530
151512
151509
151507
151505
151525
151578
151582
151482
151403
151485
151538
151641
151583
151518
151530
151474
151498
151535
151588
151618
151580
151518
151356
151436
151470
151442
151424
151421
151389
151447
151486
151566
151663
151590
151668
151712
151773
151722
151664
151687
151767
151737
151623
151643
151645
151571
151514
151546
151488
151449
151386
151278
151185
151144
151131
151209
151249
151229
151225
151291
151375
151368
151426
151416
151427
151422
151454
151531
151368
151492
151484
151514
151596
151605
151508
151628
151529
151552
151570
151610
151610
151634
151559
151587
151652
151610
151615
151586
151625
151608
151501
151544
151605
151645
151787
151797
151625
151614
151564
151569
151654
151717
151634
151586
151651
151591
151550
151652
151625
151682
151727
151716
151713
151639
151667
151646
151583
151574
151528
151515
151602
151676
151761
151707
151687
151690
151668
151682
151649
151634
151685
151754
151741
151534
151470
151691
151722
151593
151514
151580
151641
151720
151674
151668
151709
151672
151662
151737
151680
151711
151783
151764
151737
151705
151699
151665
151635
151631
151658
151695
151740
151734
151754
151738
151780
151793
151744
151693
151623
151607
151696
151777
151747
151692
151597
151677
151646
151640
151632
151591
151664
151735
151624
151648
151695
151772
151678
151654
151689
151625
151606
151700
151675
151692
151642
151537
151552
151627
151643
151592
151587
151578
151542
151507
151595
151657
151652
151560
151516
151494
151538
151613
151587
151543
151599
151611
151592
151607
151520
151540
151579
151560
151588
151579
151512
151530
151485
151441
151422
151434
151555
151608
151595
151619
151613
151566
151537
151469
151460
151508
151501
151510
151543
151483
151465
151529
151554
151628
151546
151605
151543
151411
151434
151514
151579
151676
151581
151587
151555
151536
151470
151456
151439
151422
151621
151603
151530
151436
151404
151401
151482
151472
151547
151602
151602
151537
151476
151475
151516
151547
151469
151548
151510
151444
151412
151510
151520
151499
151440
151526
151565
151584
151474
151448
151551
151512
151487
151584
151559
151475
151490
151490
151452
151440
151416
151420
151474
151561
151513
151454
151544
151542
151563
151517
151400
151415
151490
151521
151453
151457
151415
151534
151601
151530
151462
151452
151393
151398
151477
151466
151466
151532
151571
151583
151665
151686
151574
151397
151426
151332
151359
151441
151409
151347
151461
151462
151423
151406
151482
151463
151523
151548
151521
151409
151386
151382
151434
151430
151449
151417
151402
151530
151578
151577
151542
151501
151492
151423
151384
151413
151423
151455
151523
151531
151552
151488
151457
151434
151366
151329
151408
151604
151657
151501
151469
151465
151415
151348
151321
151359
151397
151449
151451
151541
151568
151546
151429
151476
151405
151385
151374
151412
151418
151323
151331
151393
151412
151479
151479
151478
151527
151506
151575
151508
151409
151470
151392
151278
151333
151465
151458
151456
151503
151425
151434
151364
151422
151503
151512
151448
151382
151389
151441
151354
151348
151431
151439
151399
151451
151369
151381
151406
151447
151459
151494
151434
151328
151376
151387
151472
151520
151515
151563
151470
151521
151451
151448
151466
151373
151518
151486
151480
151525
151467
151501
151499
151492
151501
151396
151451
151516
151541
151502
151528
151638
151646
151542
151503
151352
151376
151404
151368
151490
151572
151546
151467
151444
151466
151463
151394
151402
151530
151501
151481
151499
151528
151534
151484
151424
151391
151422
151541
151539
151469
151404
151404
151434
151430
151400
151313
151422
151483
151437
151442
151458
151573
151485
151486
151477
151482
151467
151506
151537
151510
151515
151518
151619
151656
151584
151602
151577
151675
151704
151654
151661
151767
151629
151555
151463
151316
151271
151309
151289
151145
151146
151215
151119
151156
151219
151139
151260
151338
151340
151235
151247
151281
151322
151402
151525
151591
151520
151439
151440
151516
151527
151594
151569
151597
151554
151538
151546
151548
151540
151532
151584
151641
151625
151574
151640
151676
151730
151651
151534
151494
151541
151579
151559
151541
151499
151489
151484
151493
151609
151699
151739
151774
151627
151465
151510
151522
151634
151671
151715
151652
151633
151664
151570
151577
151583
151572
151584
151544
151508
151476
151535
151512
151554
151593
151578
151634
151658
151608
151679
151582
151533
151604
151586
151570
151530
151676
151706
151733
151751
151679
151687
151676
151723
151720
151662
151681
151614
151616
151718
151753
151794
151845
151754
151672
151699
151747
151746
151749
151728
151656
151709
151784
151788
151702
151624
151701
151715
151736
151776
151801
151803
151866
151786
151825
151806
151808
151881
151851
151895
151843
151838
151847
151848
151760
151654
151783
151824
151775
151731
151763
151748
151722
151689
151681
151717
151750
151715
151717
151745
151773
151795
151848
151794
151690
151646
151661
151593
151573
151676
151793
151679
151695
151740
151804
151821
151941
151943
151883
151846
151778
151765
151705
151772
151735
151680
151757
151732
151752
151798
151846
151846
151874
151852
151800
151771
151812
151744
151741
151771
151738
151846
151898
151897
151816
151811
151817
151875
151951
151924
151954
151993
151990
151914
151891
151870
151920
152008
151870
151930
151934
151914
151928
151969
151952
151930
151962
151939
151876
151880
151864
151920
151996
151986
151919
151872
151943
151967
151949
152031
152043
152028
152036
151944
151939
151853
151879
151921
151976
151982
151932
151944
151959
152085
152093
152036
152075
152000
152013
152005
152027
152055
152114
152110
152092
151955
151950
151969
151948
151930
151923
152050
152139
152126
151984
151971
152052
152118
152045
152075
152027
152016
152003
152024
152014
152045
152076
152041
151930
151963
152074
152146
152116
152138
152154
152082
152110
152087
152085
152108
152134
152159
152171
152157
152024
152022
152089
152064
152078
152127
152117
152264
152248
152249
152181
152101
152146
152159
152074
152111
152091
152116
152149
152222
152164
152071
152059
152035
152066
152220
152268
152311
152223
152285
152325
152237
152319
152297
152237
152265
152248
152259
152177
152173
152223
152225
152258
152296
152282
152205
152259
152283
152307
152297
152298
152227
152313
152329
152290
152316
152280
152250
152292
152249
152313
152099
152068
152334
152324
152249
152299
152378
152419
152453
152337
152290
152346
152343
152305
152290
152293
152298
152356
152335
152280
152255
152275
152336
152348
152343
152338
152384
152330
152372
152313
152280
152317
152297
152295
152276
152261
152338
152525
152649
152545
152480
152424
152461
152478
152484
152430
152502
152496
152426
152375
152341
152514
152484
152486
152460
152492
152585
152479
152468
152495
152477
152532
152569
152509
152478
152499
152583
152589
152599
152548
152450
152462
152458
152513
152483
152436
152470
152528
152564
152521
152412
152524
152626
152658
152574
152547
152529
152584
152594
152562
152482
152563
152568
152525
152620
152613
152583
152589
152650
152645
152579
152582
152583
152509
152519
152503
152561
152563
152623
152599
152568
152670
152663
152662
152683
152622
152643
152779
152860
152893
152865
152797
152709
152732
152721
152702
152791
152720
152643
152686
152644
152499
152424
152392
152332
152284
152215
152252
152415
152457
152453
152467
152461
152412
152432
152400
152613
152657
152675
152777
152663
152680
152687
152652
152586
152635
152664
152661
152707
152813
152764
152812
152728
152782
152779
152739
152769
152841
152775
152788
152759
152796
152783
152717
152663
152683
152810
152917
152877
152853
152780
152742
152727
152820
152801
152738
152756
152879
152919
152883
152829
152939
152877
152894
152851
152845
152872
152887
152989
152936
152765
152815
152814
152836
152878
152901
152943
153006
152999
153028
152958
152904
152964
152974
152853
152781
152877
152887
152876
152989
152944
152965
153077
153060
153048
152958
152920
152942
152939
152926
152996
153021
153012
153038
152995
152981
153028
153073
153072
153109
153116
153068
153138
153133
153141
153086
153103
153125
153136
153150
153093
153014
153013
153080
153008
153010
153024
153216
153210
153154
153135
153065
153117
153136
153087
153143
153142
153207
153196
153127
153014
152973
153050
152973
152983
152963
153038
153150
153128
153108
153131
153182
153186
153222
153145
153057
153053
153044
153099
153153
153142
153080
153079
152954
152951
152996
153113
153169
153126
153102
153093
153110
153074
153111
153115
153038
153167
153211
153185
153104
153159
153180
153120
153143
153139
153112
153136
153177
153156
153128
153103
153171
153307
153307
153257
153190
153302
153218
153197
153247
153293
153306
153245
153187
153243
153108
153120
153248
153354
153359
153227
153165
153162
153144
153180
153264
153334
153319
153396
153441
153323
153290
153277
153243
153261
153198
153207
153209
153248
153303
153282
153333
153384
153392
153292
153265
153356
153382
153378
153362
153348
153298
153281
153246
153272
153313
153319
153355
153373
153426
153410
153391
153373
153339
153314
153278
153389
153457
153412
153464
153464
153392
153364
153401
153390
153346
153400
153424
153437
153437
153374
153382
153399
153434
153469
153352
153420
153455
153410
153536
153523
153452
153418
153385
153334
153259
153423
153594
153669
153639
153561
153484
153480
153463
153441
153389
153417
153465
153430
153430
153397
153412
153518
153587
153540
153553
153559
153563
153590
153566
153588
153598
153527
153561
153605
153526
153540
153549
153584
153626
153609
153575
153539
153465
153511
153502
153557
153610
153620
153593
153586
153605
153545
153612
153614
153603
153669
153712
153663
153615
153646
153606
153620
153650
153661
153718
153722
153642
153607
153664
153675
153645
153698
153719
153584
153617
153723
153725
153761
153769
153763
153683
153696
153668
153616
153568
153720
153744
153743
153699
153738
153709
153692
153712
153677
153627
153741
153766
153821
153854
153795
153715
153668
153721
153755
153750
153724
153742
153677
153690
153706
153611
153650
153757
153827
153848
153852
153804
153722
153771
153705
153678
153617
153689
153700
153686
153693
153866
153845
153865
153808
153839
153781
153742
153775
153733
153709
153712
153766
153849
153860
153851
153847
153768
153739
153697
153828
153917
153890
153816
153847
153885
153878
153909
153923
153829
153898
153891
153958
153887
153912
153965
153953
153932
153910
153899
153858
153943
153948
153936
153902
154007
153998
153928
153921
153906
153920
154040
154060
153977
153810
153862
153875
153904
153782
153776
153957
153949
153815
153924
153862
153993
154043
153926
153962
153896
153933
154071
154104
154045
154004
154000
154003
154061
154031
153922
153950
153973
153954
153956
153924
153960
154018
154044
154032
154142
154048
153984
153955
154089
154045
154106
154139
154132
154121
154120
154145
154165
154131
154190
154136
154103
154006
153941
153865
153779
153790
153717
153737
153874
153824
153781
153790
153838
153762
153727
153844
153943
153996
154068
153944
154016
154057
154077
154139
154088
154058
154090
154119
154132
154084
154111
154117
154046
154101
154086
154171
154162
154159
154177
154144
154075
154060
154113
154154
154088
154152
154097
154062
154117
154193
154156
154112
154141
154124
154166
154239
154252
154262
154234
154234
154221
154275
154277
154280
154177
154217
154248
154318
154269
154258
154257
154203
154299
154302
154220
154195
154211
154301
154279
154224
154246
154300
154360
154298
154231
154269
154310
154261
154332
154291
154214
154249
154320
154342
154347
154362
154366
154296
154335
154332
154342
154399
154349
154384
154365
154335
154344
154369
154366
154328
154278
154246
154278
154343
154388
154462
154401
154454
154447
154383
154450
154530
154522
154458
154432
154390
154378
154373
154431
154405
154382
154462
154418
154414
154346
154397
154471
154464
154450
154379
154374
154358
154344
154317
154185
154257
154317
154417
154508
154451
154312
154257
154350
154314
154287
154306
154418
154433
154461
154455
154470
154323
154296
154307
154263
154341
154425
154493
154511
154396
154385
154437
154385
154337
154315
154367
154357
154397
154394
154366
154431
154433
154333
154367
154363
154343
154282
154372
154457
154505
154500
154412
154347
154401
154362
154387
154440
154400
154424
154409
154414
154379
154400
154368
154360
154461
154512
154497
154493
154481
154461
154455
154453
154454
154414
154438
154511
154568
154507
154504
154531
154506
154497
154446
154390
154419
154453
154468
154519
154389
154450
154471
154500
154472
154514
154484
154509
154544
154586
154523
154524
154611
154563
154501
154494
154552
154623
154633
154520
154555
154580
154589
154546
154473
154453
154516
154650
154724
154669
154564
154617
154565
154550
154547
154561
154510
154563
154542
154626
154639
154685
154733
154649
154594
154568
154639
154655
154674
154599
154499
154656
154714
154622
154657
154622
154653
154655
154710
154667
154603
154650
154635
154626
154636
154579
154474
154580
154637
154685
154780
154793
154728
154585
154647
154660
154689
154673
154586
154640
154602
154616
154669
154672
154658
154732
154697
154679
154791
154788
154714
154749
154738
154807
154747
154667
154647
154655
154698
154723
154720
154826
154837
154708
154681
154695
154683
154694
154694
154737
154730
154858
154728
154686
154691
154687
154721
154873
154894
154887
154757
154761
154758
154767
154781
154776
154859
154933
154881
154827
154715
154861
154905
154843
154827
154798
154774
154800
154802
154755
154741
154793
154871
154877
154864
154846
154844
154869
154919
154889
154759
154747
154748
154714
154718
154768
154876
154834
154803
154867
154780
154766
154857
154850
154787
154774
154723
154642
154643
154689
154735
154847
154954
154859
154830
154839
154798
154780
154828
154866
154681
154806
154839
154819
154745
154731
154772
154746
154764
154775
154746
154711
154747
154793
154774
154817
154755
154762
154834
154897
154874
154859
154788
154778
154724
154704
154744
154731
154698
154754
154767
154801
154896
154840
154784
154741
154689
154616
154665
154704
154714
154770
154830
154833
154792
154731
154685
154625
154618
154788
154761
154712
154776
154789
154711
154650
154651
154650
154678
154700
154671
154708
154676
154712
154702
154658
154640
154668
154679
154715
154617
154659
154727
154606
154594
154610
154682
154756
154879
154849
154712
154637
154634
154648
154598
154598
154675
154693
154778
154807
154844
154843
154830
154761
154741
154749
154815
154806
154929
154933
154842
154783
154739
154681
154634
154554
154452
154423
154430
154360
154347
154356
154445
154553
154514
154459
154523
154547
154546
154672
154617
154601
154662
154691
154688
154785
154695
154693
154738
154790
154802
154869
154830
154781
154790
154744
154733
154720
154721
154715
154711
154766
154837
154841
154871
154772
154823
154878
154881
154893
154848
154813
154829
154945
154953
154817
154859
154785
154834
154864
154929
154971
154949
154906
154890
154762
154771
154818
154945
155112
155056
155020
155053
154875
154900
154917
154859
154883
154915
154871
154892
154948
155048
155028
154978
154975
154971
154985
155066
155080
155070
155119
155164
155106
155106
155010
155026
154953
154977
155008
154934
154996
155052
155165
155194
155153
155205
155138
155091
155100
155110
155076
155137
155149
155065
155006
155100
155096
155148
155133
155190
155284
155258
155209
155187
155196
155193
155192
155221
155190
155100
155148
155287
155291
155170
155125
155176
155203
155230
155236
155242
155307
155285
155232
155148
155157
155199
155105
155133
155208
155227
155258
155294
155237
155119
155164
155190
155208
155164
155082
155082
155149
155246
155219
155149
155134
155165
155165
155190
155233
155205
155227
155298
155267
155318
155241
155212
155190
155211
155202
155214
155193
155255
155268
155255
155223
155239
155237
155216
155280
155215
155267
155225
155197
155213
155192
155219
155165
155248
155265
155267
155393
155337
155359
155424
155368
155319
155214
155267
155285
155317
155336
155385
155362
155320
155291
155397
155382
155310
155302
155292
155249
155324
155357
155313
155306
155317
155250
155244
155244
155261
155358
155357
155322
155327
155268
155353
155353
155284
155339
155410
155403
155391
155339
155277
155255
155390
155327
155306
155338
155308
155353
155331
155343
155380
155271
155326
155365
155358
155343
155349
155313
155317
155357
155331
155314
155395
155479
155473
155423
155448
155428
155403
155443
155504
155342
155380
155429
155424
155385
155426
155436
155459
155468
155498
155502
155452
155461
155494
155533
155409
155430
155444
155574
155618
155504
155508
155500
155499
155505
155481
155471
155496
155524
155482
155471
155581
155596
155686
155614
155603
155576
155599
155559
155519
155464
155461
155550
155573
155607
155590
155590
155549
155636
155667
155534
155559
155510
155459
155480
155504
155674
155640
155624
155638
155610
155628
155714
155681
155642
155593
155574
155658
155724
155724
155685
155656
155636
155675
155681
155603
155671
155719
155729
155765
155565
155605
155703
155679
155708
155631
155609
155606
155728
155729
155628
155628
155676
155679
155744
155721
155751
155730
155729
155759
155728
155753
155717
155722
155803
155820
155842
155837
155898
155756
155662
155777
155803
155777
155781
155687
155669
155769
155873
155850
155756
155782
155792
155699
155738
155692
155796
155903
155769
155828
155782
155842
155788
155772
155817
155785
155847
155828
155803
155813
155732
155780
155845
155879
155906
155878
155881
155929
155888
155867
155814
155788
155819
155762
155710
155605
155702
155823
155960
156052
155953
155905
155943
156039
156063
156026
155994
156027
155927
155942
155893
155854
155857
155836
155883
155819
155940
156025
156064
156025
155982
155908
155952
155944
155905
155981
156108
156070
156003
155915
155888
155891
155965
155956
156006
155965
155998
156026
156054
156024
155947
155881
155975
155985
155961
155948
156015
155971
155956
156006
155921
155939
155997
156089
156039
155923
155857
155926
155927
155961
155993
155967
156008
156029
155988
156030
156060
156033
156047
156051
156043
156078
156002
156118
156062
156054
156112
156153
156167
156249
156229
156169
156153
156136
156221
156218
156217
156163
156123
156051
155989
155864
155757
155781
155735
155789
155827
155786
155775
155843
155877
155803
155811
155856
155886
155862
155939
156027
155968
156021
155998
156043
156092
156029
155998
156116
156200
156158
156118
156102
156025
156035
156128
156128
156047
156059
156153
156101
156133
156227
156171
156107
156096
156191
156170
156161
156271
156217
156196
156222
156217
156207
156235
156137
156124
156109
156211
156261
156285
156312
156255
156266
156246
156180
156130
156085
156141
156253
156281
156179
156076
156223
156213
156278
156286
156266
156328
156336
156338
156356
156326
156283
156224
156256
156213
156223
156294
156293
156319
156448
156424
156442
156356
156284
156343
156156
156225
156274
156300
156391
156287
156295
156342
156347
156464
156351
156313
156355
156299
156341
156399
156398
156298
156324
156410
156340
156383
156361
156392
156433
156314
156375
156390
156360
156351
156346
156418
156368
156397
156420
156520
156496
156424
156367
156435
156347
156337
156330
156273
156353
156376
156400
156366
156382
156342
156313
156268
156324
156299
156328
156339
156325
156360
156419
156364
156228
156285
156292
156275
156303
156246
156186
156216
156319
156388
156314
156356
156430
156393
156343
156396
156375
156428
156412
156336
156337
156395
156428
156409
156426
156370
156294
156202
156251
156235
156248
156395
156469
156483
156474
156435
156455
156363
156282
156373
156326
156280
156304
156363
156526
156472
156464
156497
156467
156416
156412
156488
156515
156432
156409
156410
156449
156397
156377
156376
156396
156439
156482
156474
156516
156457
156467
156455
156396
156376
156417
156433
156463
156446
156342
156382
156448
156456
156409
156363
156390
156507
156538
156562
156612
156533
156404
156439
156411
156429
156445
156579
156646
156639
156543
156432
156487
156444
156444
156469
156433
156485
156639
156627
156524
156452
156492
156460
156412
156402
156351
156354
156445
156537
156521
156504
156479
156489
156493
156457
156483
156511
156544
156595
156661
156670
156601
156584
156581
156553
156504
156535
156591
156511
156482
156449
156521
156558
156532
156484
156432
156540
156487
156547
156614
156652
156652
156627
156578
156527
156372
156431
156532
156567
156506
156534
156602
156555
156499
156484
156448
156497
156548
156673
156677
156535
156500
156400
156446
156482
156486
156551
156616
156515
156566
156599
156597
156581
156544
156566
156528
156530
156551
156549
156622
156529
156565
156613
156616
156577
156461
156532
156599
156581
156615
156602
156584
156555
156535
156489
156437
156556
156687
156733
156741
156635
156546
156566
156509
156546
156562
156562
156580
156499
156532
156569
156594
156594
156614
156620
156549
156570
156572
156618
156627
156595
156530
156458
156525
156505
156470
156508
156546
156533
156570
156627
156674
156593
156529
156511
156531
156484
156527
156705
156701
156573
156518
156547
156488
156493
156535
156481
156530
156605
156612
156548
156535
156553
156561
156552
156589
156553
156658
156681
156680
156604
156604
156590
156505
156489
156473
156577
156687
156669
156739
156739
156660
156637
156637
156623
156654
156651
156556
156551
156545
156615
156644
156638
156673
156675
156614
156746
156726
156764
156803
156775
156722
156677
156607
156637
156667
156744
156706
156685
156661
156641
156641
156657
156719
156803
156650
156651
156688
156697
156645
156653
156744
156637
156583
156572
156615
156644
156652
156655
156610
156571
156576
156616
156591
156672
156650
156648
156723
156740
156722
156619
156693
156710
156658
156637
156552
156509
156603
156623
156699
156729
156769
156795
156679
156693
156688
156715
156767
156856
156919
156837
156815
156698
156742
156740
156665
156711
156772
156615
156641
156496
156455
156450
156303
156310
156326
156226
156267
156345
156314
156289
156320
156339
156400
156623
156543
156545
156541
156560
156588
156644
156723
156660
156614
156575
156443
156489
156458
156529
156561
156548
156604
156607
156619
156690
156655
156549
156611
156624
156631
156594
156623
156602
156694
156751
156693
156763
156642
156615
156615
156522
156641
156710
156663
156623
156527
156581
156635
156685
156732
156656
156667
156641
156616
156612
156658
156664
156660
156670
156771
156726
156711
156719
156694
156695
156550
156578
156609
156681
156649
156614
156664
156598
156624
156664
156601
156592
156701
156665
156658
156608
156654
156638
156665
156648
156600
156645
156669
156721
156657
156623
156683
156722
156792
156629
156667
156704
156685
156687
156702
156668
156793
156713
156761
156787
156695
156629
156631
156669
156775
156707
156639
156762
156750
156743
156701
156752
156834
156776
156777
156783
156860
156757
156649
156715
156656
156641
156690
156720
156673
156649
156681
156664
156683
156693
156646
156630
156738
156673
156709
156732
156778
156724
156677
156638
156589
156605
156565
156520
156581
156635
156667
156616
156661
156698
156738
156654
156642
156651
156623
156606
156646
156606
156563
156612
156460
156445
156634
156683
156696
156637
156631
156648
156683
156684
156641
156628
156623
156594
156656
156671
156613
156517
156575
156582
156480
156502
156517
156562
156672
156583
156653
156687
156727
156738
156780
156710
156686
156640
156667
156740
156698
156639
156562
156527
156513
156626
156732
156798
156635
156598
156638
156723
156707
156676
156566
156594
156727
156712
156590
156639
156719
156795
156697
156686
156785
156753
156764
156732
156730
156640
156776
156830
156790
156796
156693
156665
156750
156786
156770
156670
156767
156755
156731
156815
156789
156766
156704
156746
156804
156785
156700
156645
156607
156626
156779
156825
156832
156855
156875
156787
156862
156803
156736
156717
156815
156906
156842
156827
156800
156822
156830
156854
156738
156624
156587
156654
156688
156792
156759
156699
156812
156832
156731
156757
156666
156641
156689
156816
156834
156764
156817
156740
156740
156709
156634
156703
156740
156780
156871
156960
156856
156841
156867
156813
156775
156791
156733
156779
156780
156776
156762
156776
156746
156744
156720
156772
156823
156819
156793
156795
156746
156733
156738
156766
156835
156856
156779
156786
156761
156733
156755
156824
156843
156800
156794
156761
156816
156808
156873
156856
156836
156916
156907
156847
156811
156814
156796
156782
156748
156816
156948
156955
156944
156896
156857
156874
156887
156966
156835
156792
156903
156905
156918
156903
156827
156841
156878
156930
157010
157004
156931
156997
156978
156994
156849
156875
156904
156949
157010
156944
156925
156994
156896
156851
156863
156965
156983
157013
157127
157021
156973
156975
156947
156918
156924
156946
156913
156894
157019
157014
156995
156987
157022
156999
156971
157077
157087
156988
157073
156980
157006
157066
157029
157000
157013
157009
157066
157078
157139
157094
157080
157132
157099
157076
157064
157108
157002
157008
156991
157015
156990
156964
156951
156978
156972
157057
156977
156945
157073
157130
157145
157066
157081
157061
157073
156897
156885
157032
157021
157000
157112
157117
157104
157076
157038
157051
157000
157114
157129
157014
156953
156992
157096
157063
157024
157066
156982
157028
157099
157102
157144
157220
157255
157230
157278
157185
157230
157206
157257
157306
157346
157319
157266
157201
157052
157056
156980
157023
156935
156753
156689
156755
156756
156850
156841
156815
156817
156842
156897
156924
157019
157057
157065
157144
157123
157034
156991
157072
157117
157087
157092
157151
157187
157153
157143
157158
157216
157266
157237
157188
157189
157260
157201
157334
157203
157239
157206
157195
157237
157204
157227
157182
157216
157256
157212
157256
157247
157222
157276
157213
157220
157240
157193
157251
157315
157350
157319
157324
157220
157244
157326
157362
157353
157272
157188
157251
157316
157374
157377
157295
157341
157333
157276
157321
157255
157353
157450
157304
157329
157350
157367
157420
157379
157300
157244
157299
157345
157390
157317
157352
157394
157319
157416
157367
157288
157327
157357
157369
157348
157374
157472
157505
157552
157528
157449
157324
157370
157435
157476
157501
157565
157579
157557
157550
157409
157437
157513
157394
157438
157489
157490
157549
157534
157486
157412
157427
157432
157447
157448
157477
157596
157535
157530
157476
157418
157486
157501
157488
157515
157483
157443
157484
157450
157360
157266
157407
157412
157476
157511
157533
157523
157527
157496
157463
157433
157381
157278
157337
157453
157470
157514
157514
157484
157428
157393
157384
157399
157437
157423
157385
157472
157514
157506
157416
157305
157361
157459
157476
157407
157400
157493
157520
157578
157605
157496
157443
157481
157447
157383
157370
157433
157503
157554
157609
157475
157535
157403
157334
157515
157529
157495
157574
157560
157482
157447
157465
157472
157506
157546
157544
157679
157725
157707
157642
157515
157440
157502
157465
157588
157587
157637
157647
157652
157601
157542
157523
157573
157605
157555
157596
157625
157538
157567
157546
157525
157720
157638
157596
157656
157651
157590
157631
157611
157642
157602
157556
157575
157560
157600
157564
157582
157592
157635
157604
157552
157545
157591
157626
157659
157660
157695
157663
157655
157664
157584
157599
157585
157611
157694
157618
157646
157622
157663
157666
157620
157683
157717
157611
157667
157550
157652
157686
157668
157664
157640
157581
157609
157657
157685
157713
157721
157729
157709
157699
157610
157592
157645
157662
157617
157599
157690
157772
157694
157707
157698
157727
157730
157655
157637
157588
157661
157689
157792
157782
157735
157793
157649
157627
157665
157690
157699
157716
157770
157764
157651
157715
157760
157765
157669
157659
157650
157698
157794
157747
157656
157738
157786
157711
157731
157694
157696
157670
157763
157789
157718
157709
157716
157755
157808
157841
157817
157781
157752
157726
157659
157685
157764
157686
157718
157749
157859
157861
157796
157763
157661
157655
157689
157703
157772
157736
157771
157761
157911
157840
157731
157792
157865
157846
157749
157767
157740
157685
157736
157800
157734
157754
157646
157709
157764
157784
157851
157826
157828
157819
157701
157802
157903
157827
157758
157770
157864
157896
157848
157864
157778
157700
157702
157690
157720
157662
157791
157846
157788
157821
157769
157795
157836
157818
157804
157726
157743
157718
157821
157800
157740
157711
157719
157760
157890
157856
157855
157827
157868
157929
157859
157747
157773
157801
157805
157844
157880
157862
157894
158015
157912
157927
157840
157843
157820
157740
157824
157913
157935
157911
157858
157878
157782
157752
157729
157683
157666
157676
157806
157864
157821
157897
157861
157833
157817
157780
157803
157810
157817
157787
157705
157794
157795
157822
157894
157901
157839
157855
157877
157857
157754
157767
157709
157675
157745
157698
157728
157817
157750
157797
157726
157724
157765
157812
157794
157753
157814
157820
157825
157789
157807
157900
158051
158126
158002
157924
157950
157942
157865
157843
157891
157804
157677
157530
157435
157345
157413
157440
157456
157459
157406
157457
157484
157562
157495
157541
157638
157562
157663
157682
157720
157667
157729
157720
157664
157671
157758
157774
157748
157817
157764
157748
157756
157770
157791
157687
157797
157823
157680
157716
157776
157687
157611
157692
157744
157659
157797
157819
157744
157760
157696
157707
157724
157756
157740
157642
157724
157714
157676
157673
157696
157711
157645
157612
157642
157641
157770
157729
157815
157878
157819
157801
157699
157574
157600
157581
157706
157620
157650
157762
157809
157830
157704
157709
157728
157620
157641
157685
157718
157632
157566
157715
157779
157709
157639
157597
157670
157742
157722
157775
157921
157890
157704
157652
157673
157738
157791
157766
157700
157612
157614
157675
157617
157630
157757
157753
157703
157725
157661
157707
157741
157763
157757
157665
157621
157622
157689
157783
157784
157812
157737
157601
157638
157648
157655
157471
157617
157771
157871
157764
157595
157556
157652
157674
157683
157566
157601
157627
157646
157682
157617
157582
157581
157630
157545
157444
157515
157608
157592
157595
157627
157594
157555
157546
157569
157519
157459
157407
157465
157448
157460
157530
157465
157504
157546
157513
157523
157520
157491
157471
157483
157486
157614
157613
157597
157502
157533
157553
157542
157470
157368
157417
157466
157351
157342
157467
157618
157566
157494
157522
157498
157472
157462
157456
157473
157433
157423
157433
157453
157441
157432
157507
157557
157527
157462
157439
157444
157438
157539
157570
157589
157473
157449
157436
157431
157363
157431
157552
157499
157488
157396
157358
157431
157451
157416
157284
157379
157451
157435
157387
157304
157344
157255
157238
157319
157422
157528
157608
157583
157510
157464
157487
157383
157454
157429
157302
157319
157421
157452
157431
157394
157474
157458
157373
157355
157321
157363
157492
157452
157424
157352
157358
157332
157302
157371
157310
157334
157373
157330
157358
157394
157433
157465
157336
157277
157254
157362
157382
157346
157291
157353
157448
157436
157298
157263
157360
157448
157403
157296
157287
157315
157309
157295
157298
157263
157281
157382
157493
157504
157432
157264
157269
157231
157243
157216
157167
157318
157330
157229
157295
157316
157332
157426
157372
157312
157102
157220
157307
157271
157212
157135
157157
157268
157361
157417
157245
157257
157246
157225
157247
157220
157233
157301
157283
157245
157198
157224
157268
157247
157221
157235
157296
157312
157264
157171
157153
157261
157349
157436
157338
157224
157243
157186
157172
157113
157101
157237
157207
157265
157275
157144
157132
157124
157152
157255
157264
157225
157170
157153
157193
157199
157239
157125
157062
157051
156978
157074
157189
157141
157195
157268
157324
157258
157223
157220
157068
157068
157194
157190
157215
157196
157187
157183
157221
157125
157083
157099
157085
157096
157157
157131
157179
157268
157309
157091
156983
157141
157194
157159
157079
157085
157140
157163
157154
157156
157107
157103
157067
157076
157110
157136
157220
157188
157191
157063
156993
157051
157180
157286
157209
157097
157202
157177
157098
157037
157005
157111
157055
157074
157076
157112
157140
157142
157105
157076
157037
157065
157073
157077
157047
156963
157070
157074
156955
156954
156965
156989
156970
156999
157051
157064
157090
156976
157024
157085
157058
157044
157072
157089
157079
157041
157090
157083
157045
157126
157134
157127
157188
157195
157257
157218
157243
157197
157003
157037
157037
157003
156971
156995
156969
156840
156683
156593
156553
156689
156671
156713
156699
156682
156727
156695
156736
156738
156765
156840
156834
156878
156909
156969
157053
157043
157098
157088
157054
157068
156970
156893
156944
156999
157061
157039
157035
156979
156936
157021
157048
157038
157009
156997
156933
156916
157086
157132
157136
157016
156935
156969
157017
157063
157115
157022
157082
157049
157023
157077
156997
157021
156997
156985
157031
157026
157125
157138
157070
156980
156959
156916
156987
157078
157058
157064
157110
157043
157087
157062
156928
156935
157017
157039
157074
157072
157058
157061
157078
157051
156998
157039
157000
156975
156957
157029
157149
157108
157180
157221
157119
157092
157150
157041
157053
157072
157150
157084
157046
157005
157015
157033
157114
157106
157080
157057
157041
157129
157127
157090
157003
157012
157066
157101
157245
157157
157071
157059
157036
157032
157011
157102
157110
157081
157103
157093
157083
157134
157205
157083
157056
157065
157110
157120
157097
157067
157113
157037
157069
157045
157036
156999
157004
156914
156907
156894
156932
157006
156973
156967
156900
156986
156978
156920
156979
156986
156996
156994
156942
156845
156843
156864
156931
156985
156961
157015
157080
157054
156930
156876
156783
156813
156937
157050
156982
156880
156943
156932
156919
156945
156915
156950
156924
156991
157001
157030
156985
156880
156814
156820
156796
156923
157036
157075
156959
156884
156883
156933
156891
156946
157017
157000
157004
156988
156945
156953
156980
156896
156941
157043
156983
156965
156947
156942
156990
156923
156834
156939
157002
156920
156903
156810
156832
156951
157066
157102
157166
157123
157045
156980
156961
156973
156966
156990
156956
156862
156961
156996
156928
156888
156918
157019
156994
156980
157008
156979
157093
157008
156999
156899
156898
156932
156938
157015
156937
156918
156962
157006
156958
156907
156859
156880
156911
156906
156931
156871
156971
157055
157076
157155
157064
156968
156946
157011
157103
156985
156995
157003
156976
156909
156804
156899
156867
157066
157131
157072
157051
157071
157094
156937
156852
156923
156949
156968
156997
156954
157035
157067
157073
157025
157007
156941
156917
156982
156950
156886
157002
157022
157000
157010
156920
156905
156927
156948
156958
157038
156941
156972
157019
157048
156952
156966
157028
157036
157064
156894
156968
157055
156974
156950
156929
157026
156953
156932
157002
156899
156912
157031
157071
157084
156976
156987
157002
156969
157014
157013
157021
157093
157083
157090
157026
156982
156929
156950
156966
157030
157045
157005
157007
157073
156999
156989
157018
157026
157028
157102
157068
157070
157060
157019
156968
157031
157089
157058
157035
157035
157076
157107
157096
157072
157039
157074
157077
157136
157107
157035
157095
157140
157152
157146
157104
157081
157098
157018
156923
156876
156968
157093
157100
156932
156899
156888
156905
156867
156991
157047
157192
157233
157174
157079
156947
157011
157076
157136
157105
157082
157075
157017
156991
157044
156962
156918
156977
157072
157105
157080
157112
157028
156999
156970
156990
157053
157108
157081
157126
157016
157055
157094
157118
157087
157022
157091
157079
157112
157146
156996
157011
157072
157113
157050
157024
157062
157057
157097
157140
157040
157064
157091
157047
157075
157011
156974
157031
157034
157064
157007
157066
157077
157029
157038
156935
157032
157010
156974
157052
157068
157008
156982
157019
157026
157021
156998
156949
156992
156937
156971
157045
157095
157163
157113
156990
157051
157169
157285
157292
157307
157265
157215
157247
157190
157161
157138
157051
156999
156950
156921
156992
156988
156901
156845
156715
156714
156687
156799
156725
156712
156819
156852
156868
156924
156860
156912
156937
156879
156941
156930
156995
157054
157073
157021
156961
156996
156994
157063
157094
157089
157096
157067
157109
156957
156935
157112
157165
157123
157122
157051
157068
157079
157122
157156
157095
157122
157080
157058
157103
157153
157172
157146
157068
157027
156955
156988
157100
157151
157188
157156
157179
157200
157233
157173
157000
157110
157163
157120
157064
157126
157173
157160
157218
157141
157057
157041
157047
157105
157082
157078
157178
157232
157242
157131
157130
157247
157124
157120
157153
157138
157143
157114
157108
157108
157123
157055
157212
157233
157251
157202
157266
157272
157265
157187
157090
157105
157166
157134
157220
157115
157154
157208
157243
157240

[算法提取后的结构化特征]
# 由 EcgFeatureExtractor.extract() + toPromptText() 在手机端重建
# 与手表端发给 DeepSeek 的提示词文本一致（DS 实际收到的数据）
# 注意: 用户 profile（年龄性别）未存入测量记录，手机端重建时为'未知'
#       助手如需年龄性别做医学判断，需用户单独提供

[用户属性]

[全局指标]
采样率:500Hz 时长:30.6s 总点数:15320
R波检测:34个 平均心率:64bpm 范围:55-77bpm
R波位置(样本索引):795,1917,2374,2497,2891,3179,3604,4258,5077,5181,5842,6308,6446,6697,7187,7638,7958,8128,8672,9119,9632,10182,10356,10633,11121,11624,12120,13186,13375,13681,13878,14264,14442,14553
RR间期序列(ms，[*]为偏离均值>20%的异常间期，多为早搏/误检):[2244*] 914 788 [576*] 850 [1308*] [1638*] [1322*] 932 [502*] 980 902 [640*] [340*] 1088 894 1026 [1100*] [348*] [554*] 976 1006 992 [2132*] [378*] [612*] [394*] 772 [356*]
RR差值序列(ms):-1330,-126,-212,274,458,330,-316,-390,-430,478,-78,-262,-300,748,-194,132,74,-752,206,422,30,-14,1140,-1754,234,-218,378,-416
SDNN:88.7ms RMSSD:121.3ms pNN50:66.7%
QRS宽度(本地估测,ms):51±13
PR间期(本地估测,ms):158±61
QT间期(本地估测,ms):418 QTc(Bazett):431ms QTc(Fridericia):427ms
R波平均振幅:0.28mV
R波极性:负向(负向提示导联反接/位置异常)
T/R振幅比:1.25(正常0.1-0.5，<0.1低平，>0.5高尖)
ST段偏移(本地估测,mV):0.010(正常±0.05，>0.1抬高，<-0.1压低)
信号质量:1.00 良好

[节律判别特征]
R波可靠性:边缘
可靠性指标:极端RR占比12% 有效RR占比88% 相邻RR跳变0% R峰-时长一致性1.04 异常段占比13%
提示:R波定位稳定性边缘：极端RR占比12%、有效RR占比88%，节律判读需谨慎
RR变异系数:0.095(轻度不齐)
Poincaré散点形态:鱼雷形(轻度不齐)
短-长RR配对数(早搏代偿):0个
注意:R波定位稳定性边缘，节律判读需谨慎，不宜仅凭CV/Poincaré下房颤诊断。

[逐秒分段]
时段(s)  R波  振幅范围(mV)  峰峰值(mV)  最大斜率(mV/s)  RMS(mV)
0.0-1.0  0  -1.37~1.74  3.12  123.50  0.83
1.0-2.0  1  -1.68~2.07  3.76  654.00  1.00
2.0-3.0  0  -1.55~0.95  2.50  131.00  0.62  ← 本秒无R波(心率<60或代偿间隙)
3.0-4.0  1  -0.93~1.02  1.96  107.50  0.54
4.0-5.0  2  -1.07~1.53  2.60  86.00  0.73
5.0-6.0  1  -0.81~1.03  1.85  116.00  0.49
6.0-7.0  1  -1.01~1.43  2.44  134.00  0.77
7.0-8.0  1  -2.96~2.34  5.31  90.50  1.71
8.0-9.0  1  -0.72~0.97  1.69  96.00  0.31
9.0-10.0  0  -0.75~0.79  1.55  88.50  0.42  ← 本秒无R波(心率<60或代偿间隙)
10.0-11.0  2  -0.86~0.73  1.59  109.00  0.44
11.0-12.0  1  -0.88~0.67  1.55  112.00  0.40
12.0-13.0  2  -0.61~0.52  1.13  131.00  0.31
13.0-14.0  1  -0.49~0.38  0.87  86.00  0.19
14.0-15.0  1  -0.52~0.39  0.91  85.00  0.18
15.0-16.0  2  -2.86~2.87  5.73  101.50  1.76
16.0-17.0  1  -0.56~0.86  1.42  103.00  0.31
17.0-18.0  1  -1.11~1.53  2.64  97.50  0.79
18.0-19.0  1  -0.81~1.25  2.06  87.00  0.61
19.0-20.0  1  -1.48~1.41  2.89  97.00  0.80
20.0-21.0  2  -0.39~0.28  0.67  110.50  0.12
21.0-22.0  1  -0.64~0.69  1.33  133.00  0.29
22.0-23.0  1  -0.83~0.81  1.64  106.50  0.42
23.0-24.0  1  -0.69~0.63  1.32  90.50  0.32
24.0-25.0  1  -0.74~0.68  1.42  100.00  0.33
25.0-26.0  0  -0.61~0.47  1.07  93.50  0.27  ← 本秒无R波(心率<60或代偿间隙)
26.0-27.0  2  -0.43~0.31  0.73  111.50  0.11
27.0-28.0  2  -0.58~0.52  1.10  97.50  0.29
28.0-29.0  2  -0.41~0.48  0.89  93.00  0.17
29.0-30.0  1  -0.50~0.45  0.95  109.00  0.14
逐秒RMS:0.832,1.002,0.619,0.543,0.734,0.487,0.770,1.707,0.306,0.417,0.441,0.397,0.306,0.186,0.183,1.759,0.308,0.794,0.607,0.799,0.123,0.293,0.419,0.321,0.332,0.269,0.106,0.291,0.173,0.138

[AI 解读]
# DeepSeek 返回的原始 JSON（未清洗，可能含 markdown 代码块包裹）
{
  "平均心率": 64,
  "心率范围": "55-76 bpm",
  "心率稳定性": "轻度波动",
  "心率置信度": "中",
  "SDNN_ms": 88.7,
  "RMSSD_ms": 121.3,
  "pNN50_pct": 66.7,
  "HRV解读": "HRV指标偏高（SDNN 88.7ms,RMSSD 121.3ms,pNN50 66.7%）,提示自主神经调节活跃,但pNN50过高需结合临床评估。",
  "HRV置信度": "中",
  "节律判断": "窦性心律不齐",
  "RR间期规律性": "轻度不齐（变异系数0.095）,Poincaré鱼雷形",
  "早搏提示": [],
  "节律置信度": "低",
  "PR间期_ms": 158,
  "PR判断": "正常范围（120-200ms）",
  "PR置信度": "低",
  "QRS宽度_ms": 51,
  "QRS判断": "正常范围（80-120ms）",
  "QRS置信度": "低",
  "QTc_ms": 431,
  "QTcFridericia_ms": 427,
  "QTc判断": "正常范围（男性<440ms）",
  "QTc置信度": "高",
  "间期数据来源": "本设备本地算法估测,误差约±15ms",
  "信号质量": "良好",
  "噪声段": [],
  "异常提示": ["R波极性负向（可能导联反接或位置异常）", "T/R振幅比1.25（大于0.5,提示T波高尖）", "R波检测定位稳定性边缘（极端RR占比12%,有效RR占比88%）"],
  "综合解读": "青年男性,平均心率64bpm,窦性心律不齐,HRV指标偏高提示自主神经调节活跃。T波高尖需关注,R波检测稳定性欠佳可能影响准确性,建议结合临床评估。",
  "健康建议": ["保持健康生活方式,规律作息", "如有心悸、胸闷等不适,建议就医复查12导联心电图"],
  "免责声明": "本报告基于腕表单导联ECG统计特征生成,间期为本地算法估测,仅供健康参考,不作为医疗诊断依据。如有不适请就医复查标准12导联心电图。"
}
