========== ECG 算法诊断包 ==========
测量时间: 2026-07-17 10:15:39
测量时间戳:1784254539026
采样率:500 Hz
数据点数:15310
时长:30.6 秒
分析方法:ds_flash_balanced
Tavily状态:未触发（仅 Max 档联网检索）

[原始 ECG 数据]
# 单位: mV×1000 整数（如 500 = 0.5mV，-1000 = -1.0mV）
# 采样率: 500 Hz，连续采样，无降采样无压缩
# 用途: 助手据此复现本地算法行为（基线漂移/噪声段/R波检测）
# 格式: 每行一个数值，行号=采样点索引（第1行=索引0，即 t=0.000s）
163474
163461
163411
163400
163338
163277
163356
163360
163392
163388
163268
163286
163294
163260
163214
163143
163138
163169
163221
163293
163265
163241
163299
163251
163267
163159
163184
163211
163266
163215
163090
163166
163074
162998
163075
163049
163086
163202
163238
163229
163253
163194
163112
163034
163092
163030
162968
162982
162998
163128
163147
163183
163143
162983
162846
162820
162811
162894
163008
162984
162996
163049
162951
162897
162905
162900
162900
162933
162963
162924
162792
162820
162833
162785
162778
162765
162841
162839
162860
162823
162818
162790
162716
162695
162650
162531
162693
162678
162700
162741
162664
162666
162664
162581
162562
162511
162518
162480
162560
162673
162537
162609
162560
162539
162494
162456
162478
162524
162586
162512
162507
162484
162436
162452
162387
162423
162398
162414
162435
162345
162234
162357
162380
162428
162397
162302
162360
162381
162357
162307
162235
162277
162300
162249
162171
162113
162084
162161
162238
162198
162180
162139
162121
162050
161991
162014
162147
162146
162075
161979
162006
162065
162041
162021
162029
161973
162033
162088
162048
162017
161949
161985
161938
161821
161814
161850
161921
162190
162180
162183
162144
162124
162092
162000
162015
161978
162042
162102
162124
162151
162148
162131
162088
162060
161975
161923
161880
161970
162072
162123
162062
162088
162010
161921
161900
161958
162009
161960
162032
162083
162026
161998
161949
161856
161885
161933
162095
162133
162116
162041
162010
162120
161989
161916
161864
161777
161785
161844
161996
162066
162061
162021
161957
161953
161944
161900
161925
162000
162140
162185
162166
162118
162163
162196
162148
162107
162185
162175
162157
162194
162133
162152
162259
162249
162100
162059
162112
162110
162217
162304
162102
162062
162173
162135
162118
162083
162113
162182
162220
162205
162051
162020
161976
161992
162005
162043
162079
162065
162089
162101
162101
162131
162242
162126
162054
162011
162009
162057
162095
162026
161996
162097
162131
162142
162069
162012
161945
161876
161994
162119
162094
162173
162099
162070
162011
162016
162187
162167
162153
162123
162030
162116
162177
162125
162020
161980
162036
161956
161981
162077
162050
162114
162135
162095
162091
162061
162049
162005
161946
161866
161757
161877
161931
161953
161967
161935
162023
162082
161997
162063
161964
161926
161933
161895
161889
161866
161895
161934
161990
162090
162095
162049
162080
162111
162056
162072
162132
162147
162106
162035
162074
162175
162246
162153
162037
161900
161856
161769
161690
161657
161518
161555
161594
161724
161756
161694
161807
161705
161750
161847
161880
161966
161945
161944
161945
162040
162102
162014
161978
162069
162138
162133
162106
162079
162060
161985
162052
162003
162090
162158
162060
162054
162037
162135
162121
162020
162043
162062
162094
162164
162104
162152
162101
162052
162082
162056
162063
162065
162022
162207
162155
162229
162228
162140
162114
162086
162108
162124
162082
162063
162103
162158
162295
162228
162172
162122
162104
162159
162141
162139
162164
162171
162116
162067
162037
162073
162071
162029
162054
162194
162268
162293
162292
162259
162170
162131
162172
162123
162231
162269
162208
162315
162374
162304
162325
162170
162227
162231
162252
162355
162260
162320
162441
162418
162271
162225
162259
162266
162275
162284
162273
162296
162302
162303
162352
162306
162307
162182
162192
162287
162375
162501
162399
162256
162239
162234
162302
162376
162353
162358
162292
162278
162272
162246
162270
162241
162277
162333
162325
162353
162325
162371
162358
162307
162248
162168
162242
162204
162219
162217
162229
162351
162355
162330
162302
162217
162190
162222
162237
162288
162288
162294
162319
162362
162359
162341
162314
162392
162369
162419
162449
162497
162481
162503
162396
162368
162363
162399
162480
162556
162574
162536
162588
162569
162522
162554
162620
162678
162729
162701
162718
162674
162641
162767
162757
162642
162665
162695
162776
162799
162809
162842
162821
162864
162866
162813
162825
162795
162818
162833
162856
162882
162898
162862
162800
162768
162750
162861
162866
162870
163013
162996
163012
162971
162935
162847
162889
162870
162846
162887
162943
163007
162956
162934
162915
162885
162818
162935
162913
163024
163105
163047
163075
163055
163044
162968
163032
163045
162856
162888
162947
162980
163000
163080
163067
163130
163075
163053
163049
163001
162903
163034
163093
163068
162969
162958
163025
163199
163183
163221
163283
163253
163236
163268
163294
163246
163224
163177
163084
163133
163255
163277
163274
163348
163429
163345
163336
163354
163323
163380
163375
163472
163444
163545
163599
163476
163361
163341
163428
163452
163486
163636
163645
163508
163486
163424
163500
163508
163463
163471
163603
163623
163541
163552
163561
163492
163476
163448
163458
163501
163566
163662
163751
163724
163642
163583
163500
163466
163428
163564
163652
163799
163847
163790
163726
163655
163711
163707
163726
163734
163687
163688
163726
163716
163756
163720
163751
163854
163757
163745
163776
163825
163757
163756
163833
163801
163668
163719
163689
163807
163887
163885
163921
163914
163902
163827
163794
163794
163805
163890
163892
163950
163900
163948
163936
163774
163804
163942
163965
163976
163994
164056
164064
164104
164052
163971
164018
164062
164092
164163
164113
164163
164184
164198
164136
164113
164178
164160
164092
164262
164219
164235
164342
164334
164367
164325
164362
164424
164465
164353
164383
164485
164588
164531
164457
164398
164456
164537
164541
164522
164609
164651
164638
164591
164566
164596
164653
164730
164727
164612
164615
164728
164756
164649
164611
164626
164747
164795
164854
164924
164934
164944
165016
165041
164942
164805
164860
164937
164965
165118
165074
165101
165150
165060
165046
164986
165000
164995
164940
165056
165097
165097
165083
165084
165125
165011
165023
165013
165058
165186
165206
165054
165056
165164
165217
165193
165064
165164
165227
165238
165293
165415
165395
165392
165386
165347
165338
165383
165344
165386
165473
165533
165506
165505
165528
165452
165417
165454
165552
165532
165534
165574
165615
165693
165797
165652
165674
165569
165590
165643
165598
165637
165749
165741
165674
165558
165569
165522
165407
165246
165183
165243
165381
165432
165539
165395
165383
165471
165413
165499
165482
165556
165643
165661
165726
165776
165795
165776
165814
165832
165738
165736
165799
165729
165809
165825
165881
165871
165867
165803
165745
165792
165854
165884
165956
165982
166004
166030
166025
166013
165969
165973
165977
166018
166094
166028
166002
166050
166114
166049
166047
166057
166046
166035
166147
166033
166041
165965
166022
166065
166071
166151
166175
166202
166258
166207
166221
166155
166093
166068
166094
166216
166390
166431
166484
166331
166327
166372
166374
166401
166368
166323
166333
166483
166498
166447
166489
166456
166490
166471
166485
166594
166680
166688
166605
166502
166541
166592
166707
166646
166612
166748
166787
166809
166839
166715
166710
166770
166704
166723
166810
166840
166987
167091
167078
166995
167040
167031
166955
166969
166985
167030
167011
166981
167012
167004
167126
167164
167119
167095
167161
167126
167162
167111
167022
167018
167043
167030
167095
167064
167085
167119
167136
167185
167172
167074
167003
166913
166878
166926
167016
167140
167195
167156
167097
167002
166961
166945
166940
166949
167068
167104
167109
167072
167086
167094
167052
166979
167149
167093
167001
167107
167095
167142
167168
167134
167082
167062
167070
167122
167121
167244
167153
167170
167175
167149
167188
167227
167267
167280
167258
167373
167389
167420
167349
167304
167551
167494
167511
167494
167473
167519
167591
167674
167701
167714
167624
167612
167604
167600
167626
167680
167692
167749
167820
167761
167782
167716
167657
167706
167668
167629
167679
167697
167777
167737
167676
167636
167653
167645
167667
167719
167746
167732
167711
167621
167602
167708
167739
167737
167703
167701
167764
167814
167864
167844
167826
167869
167854
167863
167830
167860
167867
167866
167852
167883
167850
167808
167845
167885
167851
167828
167832
167879
167958
167872
167815
167763
167926
167997
167984
168022
167989
167893
167870
167954
168068
168085
168051
168071
168036
168142
168141
168048
168220
168166
167980
168059
167986
168062
168010
168167
168290
168275
168278
168261
168242
168281
168270
168198
168193
168212
168186
168346
168386
168392
168345
168364
168367
168354
168363
168426
168376
168381
168434
168385
168428
168417
168441
168467
168469
168529
168487
168508
168516
168457
168461
168449
168455
168460
168434
168490
168565
168516
168513
168414
168388
168440
168454
168524
168406
168502
168580
168557
168574
168549
168580
168604
168545
168514
168451
168502
168539
168509
168533
168488
168431
168359
168381
168489
168418
168554
168602
168583
168596
168596
168564
168479
168434
168415
168223
168374
168516
168631
168636
168574
168577
168506
168484
168474
168498
168560
168625
168674
168676
168638
168593
168543
168512
168534
168471
168619
168724
168753
168800
168728
168723
168617
168525
168549
168597
168702
168731
168738
168796
168713
168739
168642
168670
168688
168547
168591
168715
168801
168672
168751
168815
168764
168723
168897
168871
168904
168952
168913
168921
168785
168437
168211
168324
168376
168521
168660
168701
168612
168671
168651
168615
168654
168605
168664
168679
168696
168730
168762
168738
168797
168803
168666
168614
168672
168638
168723
168759
168842
168926
168905
168936
168896
168849
168865
168814
168879
168953
168924
168936
168960
168978
168871
168833
168819
168819
168897
168924
168915
168940
168894
169044
169060
168921
168866
168836
168799
168762
168723
168633
168413
168372
168295
168232
168308
168350
168415
168354
168345
168288
168304
168444
168426
168416
168419
168414
168527
168611
168617
168645
168668
168682
168567
168519
168562
168542
168642
168625
168498
168476
168525
168670
168753
168658
168555
168465
168416
168626
168686
168690
168748
168687
168667
168656
168650
168644
168654
168735
168720
168735
168726
168731
168792
168819
168771
168677
168662
168732
168795
168841
168879
168961
168945
168975
168937
168826
168887
168992
168947
168952
168935
168850
168854
168805
168838
168813
168924
168852
168961
168970
168966
168956
168962
168963
168922
168882
168953
168992
168985
168990
169011
168927
168915
168982
168897
168844
168898
168997
169015
169064
169125
169114
169106
169075
169036
169055
169139
169200
169224
169175
169162
169238
169236
169253
169210
169193
169199
169265
169287
169254
169185
169303
169441
169457
169443
169339
169368
169456
169394
169330
169319
169434
169460
169479
169436
169363
169374
169422
169462
169474
169449
169478
169403
169403
169445
169465
169595
169605
169558
169607
169483
169510
169487
169377
169407
169351
169380
169452
169523
169518
169551
169648
169657
169606
169556
169468
169522
169596
169656
169686
169661
169702
169735
169732
169632
169673
169730
169765
169813
169798
169820
169901
169788
169765
169794
169803
169855
169995
169958
169856
169795
169880
169926
170026
170042
169980
169956
170029
170111
170110
170139
170245
170238
170177
170168
170111
170066
170177
170274
170332
170403
170405
170432
170333
170336
170234
170224
170283
170347
170328
170379
170393
170361
170396
170471
170366
170384
170442
170503
170504
170488
170537
170585
170460
170512
170595
170613
170577
170600
170623
170574
170611
170643
170692
170662
170629
170597
170632
170745
170714
170714
170688
170588
170556
170611
170674
170722
170728
170745
170803
170719
170716
170666
170683
170694
170635
170658
170675
170784
170830
170824
170935
170844
170853
170883
170774
170833
170881
170889
170897
170778
170779
170859
170955
170988
170984
170967
170926
170967
171018
171012
170980
170950
170935
171021
170973
171008
171053
171031
171046
170980
171047
171045
171110
171122
171112
171118
171144
171163
171149
171175
171216
171179
171199
171163
171110
171166
171235
171299
171297
171243
171284
171279
171304
171293
171277
171224
171224
171282
171298
171241
171321
171429
171423
171392
171214
171233
171325
171477
171452
171396
171388
171353
171386
171418
171378
171384
171571
171579
171624
171639
171610
171588
171529
171491
171472
171488
171558
171639
171699
171627
171683
171671
171633
171622
171578
171644
171698
171762
171681
171687
171705
171636
171619
171638
171671
171720
171768
171797
171817
171812
171850
171848
171756
171813
171806
171718
171793
171790
171822
171912
172028
172001
171928
171964
171857
171849
171888
172018
172088
172086
172120
172086
172025
172074
172017
172000
172019
172054
172064
172051
172183
172133
172165
172116
172077
172135
172160
172222
172313
172288
172291
172279
172224
172344
172296
172220
172250
172370
172399
172431
172492
172484
172364
172329
172387
172436
172422
172374
172463
172563
172687
172761
172622
172557
172515
172498
172518
172556
172621
172637
172604
172586
172510
172517
172532
172624
172653
172701
172663
172588
172682
172695
172620
172600
172584
172575
172680
172796
172813
172703
172712
172635
172732
172751
172588
172690
172697
172774
172764
172731
172723
172711
172746
172820
172679
172696
172714
172729
172753
172723
172762
172756
172785
172768
172845
172847
172841
172975
173005
172891
173058
173100
173055
173043
172983
173016
172957
172938
172940
172860
172839
172877
172863
172727
172623
172672
172601
172688
172702
172718
172764
172833
172754
172741
172761
172761
172789
172903
172941
172909
172976
172952
172979
173013
173012
173008
173133
173240
173230
173159
173161
173211
173103
173040
173051
173094
173112
173236
173212
173116
173145
173284
173216
173222
173241
173289
173300
173334
173334
173216
173275
173232
173303
173256
173282
173460
173415
173413
173394
173398
173380
173307
173308
173338
173258
173286
173359
173442
173507
173537
173545
173521
173478
173443
173328
173354
173317
173356
173369
173447
173572
173689
173581
173533
173487
173497
173455
173492
173626
173753
173757
173698
173631
173605
173527
173476
173478
173528
173539
173577
173682
173809
173772
173699
173681
173702
173671
173715
173702
173699
173795
173783
173761
173809
173724
173766
173887
173911
173968
173907
173916
173879
173807
173775
173760
173748
173797
173955
174027
173987
174007
173880
173791
173747
173755
173799
173702
173794
173871
173834
173762
173791
173851
173761
173725
173819
173706
173709
173669
173587
173653
173875
173915
174017
173998
173907
173824
173889
173862
173832
173815
173840
173815
173792
173811
173909
173868
173768
173861
173902
173817
173856
173902
173902
173868
173940
173910
173911
173899
173825
173963
174067
174017
173912
173802
173821
173937
174001
174007
174021
174021
174049
174043
173999
174017
174142
174096
174106
174230
174148
174189
174154
174100
174080
174097
174159
174212
174273
174249
174149
174161
174309
174294
174276
174194
174177
174120
174133
174236
174230
174289
174330
174274
174211
174212
174237
174277
174251
174231
174205
174278
174376
174246
174236
174229
174242
174401
174421
174286
174289
174261
174352
174456
174245
174195
174241
174240
174269
174374
174319
174370
174407
174354
174369
174237
174269
174325
174274
174294
174316
174395
174491
174467
174398
174332
174414
174353
174345
174372
174355
174407
174452
174498
174399
174365
174385
174331
174314
174351
174400
174358
174297
174310
174428
174454
174444
174423
174390
174426
174504
174581
174584
174501
174421
174539
174446
174463
174530
174576
174540
174526
174503
174613
174577
174534
174518
174527
174547
174543
174600
174715
174801
174677
174600
174567
174513
174559
174639
174662
174607
174595
174611
174694
174701
174704
174742
174629
174682
174706
174552
174590
174665
174674
174717
174716
174720
174794
174837
174837
174771
174779
174801
174777
174779
174711
174717
174706
174759
174848
174766
174808
174748
174810
174870
174748
174701
174736
174646
174681
174727
174638
174682
174722
174682
174673
174736
174823
174715
174749
174674
174774
174749
174694
174634
174600
174686
174643
174671
174670
174655
174686
174762
174682
174570
174540
174597
174570
174501
174657
174615
174663
174691
174692
174691
174580
174535
174623
174658
174637
174567
174567
174537
174460
174372
174425
174511
174534
174511
174435
174443
174500
174549
174534
174502
174354
174396
174397
174422
174497
174380
174366
174349
174318
174230
174057
174142
174245
174220
174183
174099
174109
174074
173994
173915
173781
173814
173879
173799
173802
173851
173916
173942
174040
174083
174112
174231
174250
174333
174530
174753
175007
175138
175287
175482
175462
175623
175866
176005
176227
176301
176366
176409
176504
176574
176627
176615
176620
176483
176571
176602
176529
176513
176479
176459
176451
176420
176291
176339
176302
176258
176209
176175
176081
175985
175872
175910
175885
175725
175653
175667
175690
175743
175746
175775
175807
175849
175852
175881
175904
175888
175921
175861
175916
175936
175841
175877
175905
175820
175806
175781
175898
176009
176111
176013
175862
175841
175834
175793
175716
175707
175708
175757
175778
175848
175684
175633
175519
175474
175372
175391
175506
175618
175562
175638
175465
175537
175395
175247
175118
175122
175164
175173
175094
174938
174754
174645
174731
174790
174728
174742
174746
174677
174681
174665
174565
174607
174676
174681
174722
174732
174710
174749
174845
174875
174786
174703
174761
174786
174784
174632
174623
174655
174647
174732
174655
174632
174687
174664
174807
174836
174944
174928
174890
174687
174504
174567
174570
174615
174736
174735
174846
174821
174750
174784
174809
174722
174724
174766
174764
174737
174875
174902
174984
174894
174695
174753
174744
174809
174876
174789
174851
174825
174813
174834
174831
174822
174808
174866
174875
174948
174960
174963
175023
174994
174914
174878
174824
174858
174881
174865
174965
175046
175004
175018
174919
174941
174979
174954
174973
174951
175050
175094
175159
175163
175095
175029
175053
175106
175054
175054
175034
175023
175114
175053
175040
175143
175158
175182
175180
175206
175246
175256
175139
175094
175154
175278
175284
175196
175137
175171
175170
175184
175145
175071
175063
175174
175185
175148
175139
175068
175108
175150
175095
175091
175023
174951
175020
175077
175071
175009
174985
175099
175179
175185
175008
174990
174985
174987
174986
174995
175142
175118
175146
175186
175097
175097
175099
175065
175037
175133
175199
175204
175162
175187
175185
175217
175190
175087
175136
175141
175283
175378
175386
175297
175262
175301
175333
175258
175293
175317
175331
175349
175429
175475
175442
175473
175476
175471
175461
175414
175507
175466
175506
175557
175450
175468
175432
175455
175506
175545
175545
175543
175526
175460
175433
175540
175523
175644
175708
175572
175663
175615
175611
175649
175614
175596
175542
175615
175714
175711
175749
175887
175899
175789
175694
175802
175772
175748
175792
175704
175743
175793
175876
175834
175756
175798
175790
175785
175757
175769
175797
175837
175855
175855
175748
175731
175645
175721
175841
175854
175801
175827
175891
175986
175933
175813
175707
175798
175798
175811
175936
175974
175957
175968
175905
175907
175871
175859
175903
175967
176099
175928
175899
175925
175873
175891
175886
175925
175822
175801
175920
175939
175944
176041
175936
175998
175987
175952
175977
175984
176007
175914
175959
175977
175860
175866
175959
175951
175893
175970
176056
176002
176014
176127
176029
176043
176079
176085
176066
176083
176178
176219
176266
176270
176171
176054
175953
175961
176040
176086
176199
176238
176223
176239
176235
176152
176166
176170
176083
176062
176114
176148
176153
176204
176208
176258
176270
176216
176256
176158
176276
176283
176212
176199
176166
176153
176142
176167
176206
176207
176264
176278
176224
176245
176138
176158
176092
176109
176110
176166
176211
176183
176216
176274
176308
176160
176080
176015
176002
176022
175959
176121
176222
176374
176336
176231
176190
176197
176199
176203
176262
176246
176222
176243
176242
176106
176106
176149
176197
176098
176215
176261
176204
176222
176203
176183
176146
176113
176126
176098
176161
176269
176319
176255
176241
176191
176167
176133
176173
176173
176258
176346
176397
176361
176289
176260
176242
176306
176299
176237
176290
176337
176291
176287
176302
176280
176365
176388
176256
176259
176322
176375
176389
176375
176367
176314
176301
176235
176212
176142
176188
176264
176281
176310
176337
176371
176396
176515
176465
176358
176416
176493
176536
176411
176360
176365
176227
176155
176216
176314
176411
176443
176489
176504
176464
176450
176453
176360
176374
176282
176398
176449
176379
176394
176383
176396
176376
176334
176350
176367
176479
176483
176492
176528
176534
176527
176402
176419
176384
176319
176364
176431
176504
176562
176495
176430
176379
176387
176366
176355
176379
176414
176351
176365
176365
176359
176357
176268
176334
176348
176415
176365
176415
176461
176380
176450
176498
176410
176474
176373
176449
176546
176547
176624
176654
176674
176631
176602
176550
176460
176493
176528
176531
176508
176431
176378
176082
175994
176017
175976
176105
176159
176112
176128
176070
176137
176213
176098
176117
176107
176279
176381
176406
176476
176467
176470
176464
176486
176470
176368
176441
176495
176527
176558
176576
176565
176545
176517
176538
176407
176394
176478
176545
176595
176618
176747
176589
176508
176412
176391
176455
176448
176410
176445
176478
176581
176607
176622
176588
176540
176603
176639
176623
176553
176567
176497
176532
176463
176447
176499
176625
176612
176689
176663
176654
176614
176510
176515
176541
176463
176688
176811
176817
176809
176745
176711
176599
176624
176616
176517
176653
176789
176751
176709
176770
176768
176627
176575
176598
176586
176718
176740
176793
176798
176760
176821
176776
176652
176700
176682
176677
176735
176785
176815
176835
176886
176880
176803
176822
176769
176831
176831
176765
176688
176734
176882
176990
177023
176941
176766
176806
176820
176899
176895
176841
176826
176735
176684
176720
176755
176848
176935
176930
176822
176726
176750
176784
176704
176778
176746
176725
176661
176616
176695
176741
176827
176814
176671
176723
176685
176700
176743
176678
176622
176658
176733
176768
176808
176640
176614
176718
176773
176691
176679
176629
176675
176695
176759
176801
176667
176715
176794
176833
176811
176777
176725
176759
176826
176676
176571
176555
176725
176788
176885
176849
176888
176834
176799
176892
176891
176881
176942
176957
176920
176825
176867
176899
176837
176800
176883
177047
177130
177121
177010
176978
176997
177019
176957
176912
176865
176870
176848
176875
176908
177023
177092
176963
176988
177008
176903
176940
177025
177107
177029
176957
177011
176972
176937
176947
176925
176932
177010
176989
177014
177020
177070
176928
176926
176958
176834
176797
176912
176967
177016
177098
177139
177051
177006
176929
176900
176901
176952
176920
176953
176903
176879
176940
177128
177137
177051
177046
177039
177024
176949
176949
177035
177064
176969
176966
176928
176958
177082
176982
176976
177007
177083
177064
176973
176992
176933
176960
177017
177069
177031
176988
177020
177068
176988
177065
176940
176916
177047
177111
177129
177042
177040
177129
177173
177160
177032
177052
177120
177148
177152
177081
177044
177011
176948
176993
177051
177209
177241
177196
177173
177201
177176
177179
177150
177076
177029
177040
177105
177122
177198
177193
177156
177161
177163
177152
177155
177076
177194
177212
177203
177150
177110
177068
177061
177045
177046
177155
177194
177229
177227
177180
177240
177221
177189
177144
177028
177143
177133
177120
177075
177065
177118
177149
177197
177258
177283
177186
177273
177201
177190
177177
177142
177166
177123
177064
177065
177167
177266
177260
177326
177280
177237
177219
177226
177275
177141
177171
177251
177247
177243
177191
177267
177219
177160
177175
177206
177247
177308
177252
177278
177176
177217
177260
177195
177253
177203
177155
177190
177259
177259
177162
177161
177247
177219
177189
177269
177315
177258
177191
177284
177198
177220
177258
177255
177296
177353
177264
177293
177346
177367
177399
177409
177424
177403
177376
177173
177278
177316
177359
177389
177350
177467
177378
177278
177316
177258
177234
177261
177328
177440
177473
177483
177544
177515
177400
177258
177300
177326
177419
177484
177609
177650
177536
177503
177477
177461
177318
177374
177472
177498
177498
177522
177537
177515
177474
177436
177410
177461
177513
177511
177488
177511
177459
177463
177435
177299
177356
177376
177466
177480
177406
177419
177419
177321
177334
177447
177551
177548
177599
177578
177575
177597
177590
177577
177459
177383
177392
177503
177508
177479
177558
177654
177556
177532
177511
177393
177448
177439
177529
177550
177520
177537
177500
177565
177586
177600
177559
177566
177673
177744
177717
177798
177773
177682
177672
177611
177620
177563
177511
177541
177411
177377
177371
177270
177272
177306
177289
177253
177326
177175
177278
177292
177320
177345
177420
177362
177415
177490
177558
177583
177505
177543
177627
177581
177615
177496
177598
177680
177714
177704
177619
177598
177698
177700
177693
177588
177661
177714
177660
177714
177705
177767
177692
177720
177733
177656
177719
177676
177755
177721
177780
177798
177746
177703
177738
177664
177738
177725
177762
177781
177774
177911
177927
177824
177828
177738
177773
177780
177799
177791
177794
177892
177967
177872
177826
177724
177709
177745
177800
177832
177832
177926
177886
177787
177789
177740
177819
177839
177884
177894
177890
177973
177918
177896
177934
177820
177933
177888
177890
177905
177928
178022
178051
177970
177960
177896
177867
177861
177907
177910
177856
177908
177975
178045
178050
177949
177979
177960
177981
177985
177821
177891
178029
178130
178121
177982
177938
177956
177915
177973
177983
177951
177983
178054
177986
177934
177987
177951
177973
177959
177923
177983
178026
177946
177890
177731
177777
177726
177736
177857
177906
177920
177907
177890
177977
177928
177865
177810
177777
177798
177745
177837
177885
177919
177917
177860
177882
177754
177747
177815
177700
177757
177874
177914
177885
177767
177760
177775
177829
177856
177836
177860
177874
177827
177864
177827
177839
177816
177878
177925
177807
177770
177808
177771
177727
177755
177864
177972
178100
178093
177986
177970
177958
177934
177912
177817
177795
177835
177869
177994
178042
178089
177989
177874
177813
177822
177910
177981
178045
177944
177968
177917
177992
178128
177990
177870
177874
177819
177844
177812
177834
177877
178004
178020
177977
177873
177881
177892
177839
177853
177847
177915
177944
177941
177865
177841
177831
177897
177966
177992
178058
178029
177989
178046
177992
177819
177816
177817
177988
177988
177870
177933
178006
178041
178018
177872
177877
177852
177909
177928
177900
178005
177987
177994
177941
177899
177929
177913
177967
177953
177930
177954
177968
177964
177974
177944
178044
178098
178044
178019
177998
178051
178002
177964
177954
177955
177963
177980
178003
178109
178049
178112
178137
178023
177903
177977
178116
178139
178129
178078
178017
178105
178070
178091
178153
178115
178081
178095
178111
178199
178135
178152
178185
178131
178183
178143
178092
177971
178063
178251
178288
178249
178248
178276
178202
178143
178151
178131
178089
178147
178174
178181
178131
178182
178162
178133
178120
178073
178190
178330
178356
178305
178158
178157
178126
178111
178135
178206
178264
178319
178309
178341
178322
178320
178237
178264
178254
178199
178170
178127
178158
178227
178234
178209
178150
178098
178191
178183
178227
178224
178242
178237
178301
178278
178161
178129
178197
178255
178174
178237
178280
178227
178178
178176
178259
178276
178226
178189
178129
178178
178208
178234
178285
178345
178350
178192
178269
178251
178251
178230
178260
178356
178394
178381
178256
178232
178240
178193
178210
178285
178304
178412
178470
178412
178443
178362
178433
178357
178247
178345
178389
178389
178415
178494
178413
178364
178440
178421
178411
178429
178329
178455
178430
178428
178403
178397
178496
178466
178414
178487
178478
178491
178494
178525
178455
178314
178347
178372
178389
178464
178490
178517
178472
178439
178478
178498
178429
178443
178430
178452
178453
178465
178484
178496
178473
178529
178490
178471
178403
178384
178380
178419
178549
178485
178439
178360
178305
178282
178335
178344
178286
178390
178485
178538
178524
178450
178353
178442
178442
178397
178328
178322
178347
178365
178401
178544
178642
178672
178653
178627
178598
178581
178619
178654
178604
178429
178489
178442
178342
178300
178403
178313
178269
178178
178054
177949
177964
178044
178070
178142
178148
178292
178411
178401
178390
178308
178367
178419
178447
178393
178443
178498
178530
178478
178537
178482
178415
178371
178357
178399
178498
178558
178549
178591
178456
178421
178415
178469
178538
178615
178517
178440
178561
178567
178570
178544
178515
178539
178506
178444
178378
178487
178630
178654
178643
178601
178583
178568
178558
178572
178467
178512
178518
178587
178650
178546
178568
178538
178528
178625
178626
178637
178616
178613
178584
178492
178527
178489
178434
178442
178457
178545
178565
178656
178777
178658
178678
178602
178560
178609
178548
178597
178715
178683
178618
178467
178537
178510
178468
178569
178681
178704
178662
178663
178646
178625
178591
178662
178681
178645
178618
178608
178636
178652
178664
178628
178614
178581
178699
178696
178715
178770
178721
178700
178631
178602
178646
178647
178752
178663
178653
178714
178726
178853
178803
178642
178604
178642
178640
178644
178567
178660
178674
178560
178536
178490
178548
178578
178526
178467
178557
178644
178574
178578
178593
178522
178474
178470
178407
178376
178389
178537
178597
178644
178592
178536
178551
178559
178516
178457
178438
178455
178485
178587
178582
178509
178525
178507
178531
178504
178457
178498
178531
178441
178440
178350
178314
178342
178409
178473
178470
178461
178493
178621
178608
178445
178453
178455
178289
178308
178455
178506
178507
178521
178590
178571
178536
178494
178428
178412
178413
178634
178630
178582
178672
178553
178506
178428
178391
178464
178435
178489
178583
178618
178602
178525
178546
178505
178494
178406
178453
178599
178585
178646
178664
178496
178475
178493
178534
178517
178507
178511
178492
178543
178559
178313
178288
178401
178463
178555
178540
178496
178457
178472
178471
178450
178493
178504
178470
178451
178465
178492
178545
178610
178603
178535
178430
178446
178442
178470
178563
178524
178543
178519
178512
178506
178602
178532
178435
178503
178443
178531
178523
178524
178572
178451
178552
178509
178433
178432
178386
178485
178597
178636
178612
178544
178564
178539
178496
178489
178465
178563
178620
178635
178619
178525
178495
178503
178522
178477
178473
178573
178583
178520
178627
178592
178531
178514
178536
178561
178504
178497
178537
178533
178585
178520
178585
178705
178720
178552
178545
178602
178675
178712
178676
178575
178607
178605
178582
178493
178410
178457
178535
178665
178717
178563
178623
178555
178539
178515
178473
178543
178707
178741
178652
178586
178549
178501
178494
178475
178416
178583
178626
178692
178674
178615
178545
178520
178516
178573
178579
178583
178604
178631
178668
178581
178463
178514
178625
178536
178595
178704
178679
178631
178634
178488
178496
178535
178573
178646
178639
178594
178572
178583
178565
178591
178623
178560
178517
178574
178565
178542
178599
178629
178617
178601
178556
178552
178542
178514
178676
178954
178880
178749
178709
178593
178601
178624
178662
178641
178605
178643
178747
178733
178755
178800
178813
178756
178713
178698
178592
178605
178679
178768
178758
178722
178710
178624
178552
178630
178732
178778
178706
178727
178723
178684
178711
178746
178751
178778
178744
178823
178757
178826
178771
178824
178853
178766
178789
178822
178738
178771
178770
178863
178945
178848
178843
178774
178744
178820
178722
178824
178902
178838
178780
178744
178813
178856
178729
178715
178652
178705
178721
178640
178747
178758
178783
178804
178774
178729
178681
178739
178667
178744
178916
178964
178779
178766
178791
178751
178692
178791
178832
178858
178782
178811
178839
178747
178733
178765
178665
178744
178822
178752
178696
178767
178741
178754
178784
178784
178728
178823
178801
178829
178891
178959
179012
178981
178935
178940
178965
179059
178934
178870
178889
178705
178676
178576
178509
178542
178375
178406
178420
178528
178509
178451
178513
178479
178453
178479
178440
178529
178629
178656
178634
178562
178633
178796
178745
178642
178661
178788
178801
178816
178800
178758
178791
178719
178723
178780
178663
178632
178717
178838
178822
178784
178689
178702
178750
178739
178738
178794
178761
178727
178827
178805
178783
178715
178633
178659
178612
178727
178807
178801
178742
178692
178692
178713
178707
178673
178591
178803
178733
178759
178804
178746
178752
178768
178789
178725
178727
178778
178789
178821
178848
178900
178873
178712
178708
178726
178712
178795
178878
178905
178853
178757
178785
178847
178859
178762
178848
178849
178879
178950
178839
178719
178721
178811
178940
178972
178787
178818
178916
178896
178949
178979
178860
178830
178794
178853
178807
178830
178869
178932
178899
178865
178895
178901
178865
178859
178967
178918
178934
178920
178870
178882
178912
178936
178933
178830
178749
178851
178916
178912
179017
178909
178843
178811
178816
178826
178833
178896
178883
178925
178928
178828
178790
178766
178821
178837
178798
178727
178816
178791
178797
178762
178814
178832
178707
178687
178703
178882
178927
178837
178796
178883
179021
178837
178776
178804
178748
178809
178818
178739
178782
178833
178884
178792
178763
178869
178769
178787
178861
178872
178868
178824
178819
178741
178676
178626
178674
178867
179030
179075
179005
178996
179013
178951
178859
178854
178792
178838
179010
179045
179046
178997
178938
178978
178900
178906
178890
178861
178890
178890
178929
178932
178979
178945
178943
178910
178883
178849
178967
178989
178935
178911
178816
178741
178740
178794
178722
178843
179019
179055
179087
179010
179034
179016
178981
178854
178788
178786
178808
178963
178985
179010
179024
178929
178912
178954
178825
178870
178869
178883
178854
178774
178935
178932
178864
178906
178967
178941
178935
178878
178887
178873
178933
178873
178833
178778
178807
178873
178954
179061
178956
178908
178979
178948
178878
178835
178756
178784
178861
178913
178970
179028
179096
179011
178972
178939
178858
178894
178924
178928
179011
178873
178867
178911
178925
178975
178957
178966
179001
178900
178898
178824
178899
178891
178918
178835
178793
178820
178916
178973
179043
178938
178949
178876
178820
178757
178718
178756
178762
178736
178838
178962
179019
179074
178974
178961
178942
178926
178906
178860
178913
178980
179002
178846
178843
178929
178748
178872
178904
178946
178947
178882
178904
178936
178883
178874
178801
178856
178909
178919
178925
178908
179009
178982
178910
178898
178866
178923
179002
178944
178886
178889
178919
178898
178834
178846
178792
178887
178940
178998
178950
178993
179019
178899
178881
178952
178919
178913
178858
178923
178995
178875
178971
179023
178929
178832
178736
178812
178878
178933
179004
178976
178948
178910
178956
178884
178785
178842
178857
178914
178824
178781
178832
178887
178938
178953
178901
178932
178911
178883
178894
178899
178991
178863
178792
178842
178830
178899
178884
178980
178946
178945
179031
179063
178985
178932
178967
178974
178861
178933
179005
179053
179088
179043
178909
178882
178865
178970
179042
179068
179058
178938
178949
178976
178940
178904
178891
178933
178953
179016
179005
179071
179036
178923
178974
178986
178954
179007
178972
178931
178937
178906
179011
179037
179017
179019
178987
179003
178992
178965
178965
178933
179051
179025
178867
178859
178906
178979
178972
178917
178940
178931
178974
178996
179084
179032
178970
178982
178914
178944
178997
179033
179109
179177
179120
179167
179084
179125
179132
179153
179096
179007
178949
178876
178931
178848
178694
178601
178684
178710
178671
178589
178617
178666
178661
178582
178479
178613
178753
178886
179002
178968
178998
179015
179039
179028
178992
178963
178939
178961
178927
179010
179039
178943
178999
179073
178982
179028
179045
179028
178982
178931
178956
178966
179020
179045
179035
179039
179006
179044
179096
179096
179084
179013
178908
178949
178997
179108
179131
179175
179298
179261
179189
179189
179213
179093
179044
179089
179205
179187
179187
179168
179122
179133
179127
179111
179080
179065
179048
179071
179148
179151
179223
179213
179241
179226
179166
179108
179144
179201
179168
179167
179164
179299
179237
179202
179203
179232
179275
179253
179248
179209
179247
179208
179212
179175
179171
179223
179344
179332
179249
179252
179272
179275
179228
179149
179089
179107
179197
179303
179344
179265
179226
179224
179209
179136
179126
179187
179162
179165
179184
179174
179182
179252
179275
179266
179191
179183
179194
179300
179249
179131
179172
179234
179209
179191
179126
179105
179106
179226
179318
179209
179217
179299
179148
179110
179023
178964
179035
179102
179039
179080
179081
178960
178909
178892
178930
179150
179318
179224
179119
179070
179073
179073
179030
179021
178954
178981
179049
179075
179130
179046
179099
179100
179059
178984
179015
178990
179083
179154
179221
179128
179210
179237
179120
179088
179081
179121
179044
178993
179009
179055
179188
179233
179290
179286
179130
179152
179136
179160
179190
179196
179224
179243
179188
179098
179073
179073
179074
179165
179283
179267
179201
179235
179251
179150
179116
179212
179156
179157
179129
179073
179124
179223
179276
179302
179220
179262
179318
179279
179222
179230
179221
179265
179274
179190
179141
179167
179105
179197
179450
179434
179398
179421
179364
179221
179230
179296
179312
179259
179226
179221
179277
179279
179259
179243
179241
179276
179219
179182
179276
179264
179271
179276
179294
179221
179269
179360
179348
179371
179467
179341
179273
179292
179325
179248
179142
179168
179186
179289
179351
179358
179396
179413
179396
179333
179315
179277
179204
179186
179306
179294
179252
179249
179217
179311
179296
179359
179361
179419
179380
179266
179265
179360
179330
179284
179239
179362
179396
179357
179412
179276
179310
179385
179388
179332
179318
179355
179322
179285
179293
179322
179421
179445
179311
179254
179240
179320
179387
179429
179456
179466
179415
179393
179356
179254
179245
179298
179228
179265
179360
179392
179434
179359
179377
179344
179305
179235
179310
179313
179301
179266
179317
179350
179352
179332
179261
179243
179209
179236
179329
179309
179316
179331
179344
179242
179219
179241
179161
179140
179179
179122
179138
179149
179223
179266
179275
179150
179062
179201
179292
179257
179242
179096
179103
179155
179064
179052
179088
179094
179191
179117
179085
179124
179132
179066
178956
178984
179017
179003
179029
178990
179031
179089
179095
179092
179052
178988
178984
178914
178936
178982
179003
179030
178947
178877
178878
178950
178884
178848
178853
178851
178915
178979
179009
178917
178827
178820
178792
178816
178891
178838
178744
178796
178781
178770
178674
178639
178675
178781
178910
178818
178829
178861
178787
178743
178707
178707
178596
178554
178642
178669
178653
178663
178738
178757
178573
178636
178676
178627
178606
178529
178550
178562
178605
178429
178268
178340
178424
178400
178439
178427
178436
178382
178378
178354
178238
178230
178348
178330
178272
178135
178252
178169
178135
178214
178074
178056
178027
178047
178058
177987
178057
177999
178012
177982
177964
178009
177871
177854
177948
177899
177925
177803
177872
177865
177843
177814
177849
177867
177779
177797
177888
177937
177841
177833
177688
177624
177588
177587
177547
177478
177476
177350
177274
177148
177025
176880
176857
176813
176916
176930
177023
177046
177051
177063
176978
176945
176989
177057
177016
177008
177114
177163
177058
176935
176860
176830
176859
176837
176928
176917
176953
176843
176790
176731
176622
176605
176701
176810
176745
176618
176653
176624
176571
176590
176493
176404
176429
176397
176390
176370
176445
176428
176460
176388
176209
176184
176194
176311
176158
176035
176182
176176
176163
176194
176075
175978
175977
176019
175933
175872
175915
176016
175957
175840
175777
175762
175750
175668
175676
175703
175747
175743
175737
175636
175435
175413
175354
175394
175427
175462
175452
175404
175405
175396
175286
175344
175318
175354
175260
175159
175135
175120
175112
175170
175092
175001
175008
175001
174998
174993
174925
174896
174964
174913
174770
174695
174726
174691
174611
174621
174691
174691
174652
174560
174498
174599
174459
174435
174321
174269
174400
174463
174464
174459
174348
174267
174128
174133
174077
174006
174053
174075
174051
174036
174016
174024
174011
173922
173848
173768
173875
173879
173800
173836
173717
173665
173594
173567
173487
173527
173541
173529
173542
173443
173331
173394
173393
173236
173196
173240
173309
173287
173215
173208
173106
173091
173100
173061
173029
173023
172976
173024
172970
172919
172856
172869
172955
172859
172746
172757
172778
172667
172701
172611
172627
172724
172657
172557
172591
172553
172560
172545
172546
172401
172322
172298
172287
172222
172180
172197
172191
172148
172233
172250
172052
171952
171941
171990
171983
171981
172004
172017
171870
171820
171768
171818
171764
171787
171865
171755
171743
171677
171667
171602
171471
171476
171410
171455
171512
171548
171520
171546
171546
171408
171305
171270
171323
171159
171176
171142
171188
171289
171270
171089
170992
170931
170934
170902
170899
170818
170828
170862
170921
171007
170890
170813
170712
170680
170644
170593
170654
170733
170760
170681
170572
170561
170486
170484
170518
170454
170436
170401
170403
170454
170356
170286
170158
170106
170192
170224
170252
170167
170111
170081
169960
169999
169936
169977
170019
170029
170011
169945
169894
169934
169845
169801
169798
169803
169758
169704
169781
169763
169699
169647
169552
169615
169592
169488
169393
169459
169555
169554
169505
169542
169381
169338
169296
169289
169274
169192
169220
169281
169280
169209
169150
169144
169158
169097
169146
169184
169180
169143
169100
169112
169096
169053
168844
168822
168843
168872
168967
168992
168892
168875
168788
168680
168627
168706
168700
168561
168520
168531
168576
168624
168635
168598
168520
168467
168438
168359
168526
168527
168355
168360
168216
168106
168072
168129
168277
168230
168349
168367
168265
168238
168193
168137
168045
168011
168067
168084
168110
168230
168099
168102
168018
167942
167875
167869
167926
167899
167902
167853
167941
167984
167731
167823
167816
167881
167746
167672
167693
167763
167791
167777
167645
167609
167552
167566
167568
167620
167656
167689
167630
167544
167567
167525
167541
167509
167432
167371
167451
167505
167550
167410
167349
167396
167407
167326
167265
167246
167416
167423
167358
167383
167309
167249
167230
167237
167297
167211
167175
167198
167250
167209
167208
167222
167180
167220
167155
167085
167220
167217
167146
167043
167047
167003
166904
166893
166889
166890
166901
166912
166959
167018
166911
166849
166867
166834
166784
166737
166781
166792
166891
166838
166788
166761
166742
166748
166853
166743
166655
166621
166626
166622
166580
166542
166592
166636
166586
166582
166586
166561
166568
166600
166734
166746
166626
166590
166625
166590
166706
166707
166687
166702
166576
166501
166415
166401
166408
166344
166405
166362
166254
166142
165992
165939
165983
165944
165983
165959
166088
166068
166092
166130
166135
166030
166065
166019
166068
166086
166149
166227
166254
166315
166399
166413
166402
166156
166134
166046
166085
166130
166080
166132
166166
166252
166233
166107
166089
165981
165947
166054
166188
166090
166104
166287
166187
166174
166098
165997
165996
166054
166041
166015
166055
166056
166019
166058
166049
165964
165973
166065
166085
166060
166073
166037
165960
166032
165929
165927
165990
166052
166067
166003
165938
165934
165845
165883
165909
165855
165934
165968
165943
166016
166003
165910
165835
165794
165849
165879
166017
166060
166072
166031
165978
165903
165881
165916
165959
165810
165921
165957
165965
165924
165927
166031
165976
165920
165887
165880
165836
165825
165858
165883
165965
166025
165895
165919
165984
165802
165843
165901
165973
165908
165822
165746
165828
165957
165898
165875
165967
165939
165953
165917
165916
165870
165856
165845
165837
165784
165829
165883
165885
165869
165806
165776
165789
165867
165905
165829
165807
165920
165912
165909
165863
165910
165883
165885
165817
165721
165823
165793
165689
165803
165808
165886
165834
165749
165779
165723
165793
165856
165869
165927
165925
165812
165775
165779
165744
165806
165869
165874
165882
165882
165820
165849
165807
165799
165842
165808
165696
165747
165769
165735
165685
165698
165754
165740
165754
165770
165749
165788
165878
165838
165794
165783
165688
165754
165699
165779
165809
165899
165843
165780
165802
165849
165901
165866
165831
165811
165832
165856
165776
165822
165842
165902
165857
165798
165776
165728
165664
165720
165774
165766
165817
165929
165887
165811
165769
165708
165803
165839
165909
165914
165876
165881
165885
165880
165843
165795
165835
165790
165807
165862
165959
165922
165772
165779
165812
165872
165867
165901
165963
165894
165827
165833
165849
165889
165891
165750
165732
165868
165957
165920
165923
165973
165986
165908
165867
165827
165780
165881
165949
166077
166010
165990
165943
165936
165981
165861
165881
166012
166042
165996
165933
165974
166013
165977
165869
165918
165970
165947
165913
166003
166053
166046
165984
165974
165952
165923
165945
166010
166010
166030
166064
166140
166093
166062
166005
165948
165960
165999
166082
166105
166043
166166
166080
166059
166033
165925
165983
166116
166107
165991
165960
166075
166113
166152
166120
166076
166063
166091
166120
166184
166164
166233
166153
166074
166089
166138
166099
166118
166178
166219
166184
166167
166161
166228
166216
166114
166174
166177
166192
166167
166120
166206
166207
166250
166224
166142
166108
166091
166168
166240
166277
166316
166347
166289
166171
166170
166116
166198
166225
166297
166387
166361
166334
166281
166220
166251
166271
166256
166293
166294
166289
166328
166302
166259
166253
166236
166253
166323
166320
166417
166417
166403
166361
166318
166322
166306
166283
166379
166487
166597
166547
166535
166401
166353
166398
166307
166295
166402
166430
166489
166552
166575
166536
166578
166536
166493
166551
166530
166506
166549
166470
166517
166557
166509
166477
166498
166511
166554
166570
166632
166653
166631
166602
166572
166530
166493
166492
166541
166588
166616
166573
166676
166616
166500
166485
166501
166690
166677
166670
166641
166633
166709
166680
166676
166633
166716
166765
166733
166763
166774
166718
166782
166816
166771
166718
166709
166697
166726
166761
166767
166698
166779
166870
166868
166743
166687
166720
166679
166797
166882
166795
166648
166699
166699
166705
166698
166843
166911
166943
166906
166841
166947
166866
166838
166817
166831
166901
166868
166856
166934
167025
166955
166921
166893
166829
166804
166872
166949
166941
167031
166942
166993
166960
166930
166938
166880
166871
166922
167080
167229
167238
167266
167248
167163
167203
167173
167226
167198
167208
167360
167178
167218
167085
167063
166990
166927
166871
166702
166732
166789
166847
166855
166843
166844
166848
166791
166941
166973
167009
167069
167061
167157
167243
167259
167210
167151
167161
167196
167294
167395
167238
167198
167259
167261
167222
167126
167216
167260
167325
167434
167337
167342
167423
167447
167358
167255
167319
167229
167247
167336
167365
167492
167556
167484
167422
167365
167419
167457
167415
167432
167530
167611
167645
167507
167410
167367
167398
167420
167483
167507
167465
167564
167605
167537
167484
167423
167457
167477
167541
167612
167624
167577
167608
167616
167617
167666
167713
167718
167691
167674
167649
167750
167694
167666
167802
167618
167642
167644
167662
167768
167758
167783
167754
167710
167670
167706
167818
167814
167787
167784
167815
167863
167819
167794
167786
167831
167874
167787
167758
167793
167853
167866
168034
167837
167866
167879
167872
167868
167952
167986
167958
167977
167983
167967
167875
167758
167774
167839
168015
168064
167951
167974
167979
167947
167908
167779
167761
167825
167883
167994
168047
168004
167993
167989
167894
167854
167930
168020
168024
168117
168034
168020
168021
168038
167958
167905
168002
168076
167972
167974
167992
168092
168029
168122
168046
167987
167972
167999
167958
167992
168022
167996
168000
168029
168132
168037
168105
167962
167996
168055
167971
168019
168096
168247
168257
168194
168219
168099
168049
168105
168111
168153
168138
168158
168127
168163
168131
168133
168265
168216
168124
168204
168203
168214
168137
168129
168141
168123
168126
168130
168163
168196
168223
168186
168131
168083
168157
168293
168327
168364
168365
168360
168345
168259
168266
168190
168256
168383
168360
168356
168226
168260
168383
168431
168338
168244
168314
168291
168323
168337
168289
168401
168413
168410
168411
168381
168360
168395
168440
168417
168350
168390
168441
168391
168488
168476
168490
168539
168535
168554
168578
168655
168719
168681
168655
168507
168551
168531
168542
168601
168580
168645
168690
168620
168609
168544
168617
168562
168561
168637
168555
168580
168695
168691
168673
168682
168653
168690
168722
168761
168706
168784
168847
168815
168803
168766
168670
168684
168742
168846
168864
168866
168893
168868
168856
168803
168747
168706
168710
168771
168900
168884
168903
168934
168890
168848
168780
168816
168801
168868
168857
168936
168986
168946
168888
168885
168905
168991
168966
168991
168997
168994
169042
169029
169110
169038
168949
168860
168886
168988
169027
169082
169072
169109
169102
168957
168973
168973
168992
169006
169092
169155
169107
169084
169043
169096
169112
169061
169094
169098
169121
169234
169109
169046
169040
169052
169101
169149
169171
169113
169035
169164
169203
169143
169097
169001
168974
168992
169039
169121
169197
169197
169280
169257
169216
169134
169142
169137
169096
169179
169069
169064
169153
169226
169269
169149
169159
169140
169137
169175
169212
169155
169169
169220
169240
169174
169142
169115
169094
169090
169138
169204
169252
169290
169351
169303
169258
169259
169251
169181
169216
169314
169222
169246
169107
169090
169201
169337
169409
169346
169354
169393
169369
169396
169368
169271
169277
169262
169187
169229
169260
169395
169414
169395
169414
169340
169365
169374
169390
169400
169452
169430
169487
169448
169424
169366
169459
169413
169431
169444
169476
169563
169608
169554
169533
169359
169381
169467
169402
169393
169367
169508
169634
169670
169626
169558
169586
169592
169537
169518
169474
169489
169536
169611
169716
169605
169622
169645
169543
169599
169637
169643
169592
169569
169574
169560
169603
169592
169621
169505
169561
169647
169658
169634
169631
169644
169644
169551
169526
169560
169592
169643
169697
169747
169723
169599
169644
169636
169592
169633
169701
169697
169721
169770
169789
169783
169856
169861
169773
169796
169855
169927
170016
170087
170107
169990
169918
169832
169744
169776
169699
169713
169834
169804
169670
169549
169486
169508
169536
169542
169641
169583
169568
169717
169761
169722
169695
169784
169867
169798
169823
169925
169965
169892
169943
169912
169819
169828
169893
169933
169914
170005
170110
170097
170126
170129
170082
170059
170066
170122
170027
170007
170116
170150
170190
170159
170116
170212
170123
170077
170148
170187
170245
170243
170205
170212
170213
170201
170140
170155
170168
170223
170285
170281
170318
170332
170293
170304
170203
170167
170226
170419
170426
170366
170402
170321
170299
170260
170240
170244
170312
170335
170392
170419
170450
170504
170521
170396
170304
170315
170409
170555
170518
170446
170460
170426
170446
170387
170452
170523
170478
170432
170487
170525
170577
170572
170603
170660
170645
170625
170537
170644
170686
170726
170729
170679
170733
170711
170678
170700
170685
170699
170751
170859
170805
170733
170676
170682
170701
170635
170625
170709
170743
170763
170774
170754
170826
170813
170754
170846
170812
170831
170932
170990
170819
170729
170779
170794
170791
170770
170715
170789
170852
170819
170880
170796
170812
170858
170836
170845
170777
170777
170795
170900
170900
170844
170841
170822
170798
170799
170723
170691
170795
170721
170772
170913
170894
170906
170965
170894
170862
170969
171018
171015
170973
170953
170930
170894
170956
170962
170968
171044
171008
170941
170926
170986
171068
171028
170972
171078
170938
171044
171067
171017
171064
171017
170957
171057
171107
171240
171130
171211
171216
171186
171186
171154
171188
171127
171130
171150
171131
171179
171220
171221
171343
171297
171363
171362
171293
171340
171267
171203
171207
171253
171326
171300
171312
171259
171244
171290
171291
171350
171332
171403
171483
171354
171302
171310
171296
171355
171381
171454
171472
171409
171387
171478
171481
171316
171398
171424
171404
171404
171394
171443
171467
171389
171411
171398
171458
171480
171450
171571
171600
171549
171538
171481
171453
171439
171494
171539
171522
171620
171592
171602
171564
171548
171552
171605
171661
171649
171592
171666
171756
171753
171642
171557
171595
171673
171740
171721
171721
171764
171822
171872
171908
171714
171728
171753
171651
171673
171703
171812
171826
171808
171836
171804
171797
171727
171723
171816
171778
171782
171835
171837
171912
171907
171864
171787
171808
171768
171746
171859
171867
171816
171775
171820
171899
171967
171927
171810
171825
171890
171862
171781
171782
171757
171766
171801
171905
171952
171883
171873
171976
171884
171905
171867
171846
171854
171942
171974
171874
171964
171925
171967
171969
171895
171918
171865
171833
171890
171822
171853
171817
171789
171834
171913
171990
172010
171937
171892
171853
171874
171914
171990
172042
171978
171875
171928
171909
171941
171961
172043
171983
171988
172057
172089
172028
171982
172010
171915
171873
171945
172033
172139
172138
172091
172063
171977
171958
171971
171950
171919
171990
172063
172083
172036
172031
171983
171989
171999
171904
171994
172031
172142
172173
172182
172160
172115
171987
172061
172061
172142
172221
172180
172172
172159
172148
172131
172102
172085
172113
172188
172229
172230
172245
172110
172077
172053
172081
172139
172143
172192
172248
172231
172175
172133
172094
172007
171987
172047
171981
172125
172271
172273
172244
172165
172128
172177
172210
172134
172045
172131
172169
172231
172209
172173
172183
172208
172182
172139
172126
172121
172195
172143
172196
172212
172333
172290
172241
172099
172109
172200
172232
172199
172165
172153
172161
172165
172209
172215
172148
172221
172309
172296
172300
172226
172291
172291
172289
172334
172322
172373
172425
172485
172409
172381
172326
172281
172297
172302
172221
172230
172116
172072
172000
171950
171941
171895
171877
171874
171879
171902
172012
172086
172076
172044
172074
172138
172239
172264
172192
172258
172320
172415
172402
172289
172291
172324
172334
172295
172199
172193
172325
172262
172385
172465
172419
172292
172341
172370
172373
172328
172394
172411
172461
172396
172345
172319
172311
172331
172335
172426
172410
172405
172386
172361
172452
172496
172435
172418
172344
172365
172445
172398
172418
172400
172435
172440
172507
172428
172395
172462
172475
172443
172396
172332
172385
172363
172367
172451
172446
172499
172608
172569
172520
172474
172512
172520
172519
172467
172403
172470
172459
172510
172563
172603
172684
172553
172545
172565
172492
172465
172470
172513
172540
172538
172561
172466
172423
172502
172573
172562
172550
172582
172619
172534
172610
172524
172540
172556
172555
172584
172647
172641
172591
172635
172625
172608
172609
172661
172622
172650
172555
172556
172637
172546
172622
172567
172548
172546
172574
172651
172681
172669
172622
172551
172662
172613
172614
172619
172485
172449
172609
172699
172697
172641
172619
172525
172487
172536
172562
172566
172515
172552
172601
172581
172607
172613
172544
172532
172476
172555
172585
172654
172671
172542
172613
172523
172509
172514
172501
172580
172680
172667
172700
172605
172677
172740
172680
172479
172428
172412
172518
172608
172589
172593
172666
172630
172591
172610
172613
172703
172749
172754
172733
172636
172683
172648
172579
172595
172580
172603
172725
172756
172707
172652
172691
172776
172730
172643
172639
172717
172658
172726
172757
172679
172749
172782
172701
172644
172610
172617
172634
172682
172715
172655
172642
172624
172707
172740
172745
172694
172745
172711
172717
172719
172801
172831
172729
172643
172622
172667
172761
172810
172793
172827
172845
172783
172727
172717
172662
172656
172747
172677
172663
172601
172674
172786
172699
172764
172721
172699
172669
172719
172841
172816
172800
172730
172701
172707
172662
172686
172761
172798
172866
172754
172710
172786
172859
172953
172793
172712
172719
172810
172826
172760
172775
172792
172814
172828
172787
172791
172769
172815
172817
172824
172807
172718
172726
172785
172786
172782
172840
172868
172849
172780
172874
172948
172851
172836
172804
172732
172731
172805
172751
172744
172831
172804
172782
172825
172802
172871
172913
172879
172901
172824
172935
172925
172909
172856
172826
172809
172805
172836
172880
172760
172777
172864
172890
172889
172890
172859
172927
172972
172951
172936
172903
172923
172901
172872
172854
172878
172794
172802
172756
172741
172900
173058
173021
172917
172825
172854
172806
172892
172928
172878
172913
172913
172882
172864
172807
172866
172946
172970
172966
172824
172878
172938
172955
172898
172826
172825
172820
172868
172974
172958
172998
173027
172923
172920
172870
172859
172941
172979
172980
172829
172797
172853
172837
172837
172906
172915
172926
172998
173048
172907
172917
172964
173043
173018
172932
172933
172958
173009
172992
172955
172991
173053
173023
172980
172896
172844
172867
173040
173026
173065
173080
173059
173008
172957
172910
172914
172991
173050
173054
173017
173025
173015
173048
173044
172985
173020
172991
173004
173046
173061
173145
173152
173126
173109
173023
173031
173049
173157
173130
173163
173146
173035
173033
173036
173038
173088
173051
173158
173116
173044
173165
173138
173105
173097
173062
173090
173082
173064
173030
173088
173101
173115
173043
172955
172971
173024
173106
173123
173141
173161
173113
173126
173096
173069
173083
173063
172997
173000
173070
173136
173175
173144
173139
173156
173095
173011
172917
173003
173135
173141
173233
173227
173166
173128
173141
173217
173241
173370
173395
173416
173306
173332
173305
173173
173041
173057
173039
173030
173000
172908
172911
172868
172849
172808
172703
172701
172751
172900
172974
173008
173008
173036
173098
173092
173040
173093
173103
173200
173207
173144
173208
173241
173223
173119
173109
173175
173101
173201
173241
173274
173302
173281
173244
173248
173231
173151
173267
173283
173301
173203
173219
173214
173294
173272
173171
173184
173120
173204
173301
173311
173332
173366
173329
173222
173213
173300
173297
173267
173268
173260
173345
173248
173284
173269
173270
173300
173257
173225
173232
173248
173277
173309
173412
173320
173178
173258
173311
173346
173375
173277
173264
173370
173267
173229
173231
173271
173339
173332
173348
173338
173368
173409
173319
173307
173381
173433
173392
173387
173434
173362
173299
173379
173468
173575
173436
173364
173259
173278
173408
173470
173423
173395
173411
173420
173395
173480
173457
173432
173392
173329
173440
173438
173496
173503
173441
173472
173517
173553
173417
173341
173355
173373
173460
173417
173445
173521
173443
173407
173475
173476
173479
173326
173347
173374
173280
173391
173422
173361
173492
173454
173490
173463
173379
173394
173319
173374
173438
173340
173264
173351
173399
173411
173418
173416
173342
173435
173334
173303
173364
173434
173470
173492
173450
173403
173302
173381
173352
173346
173443
173386
173391
173441
173450
173372
173369
173435
173334
173319
173423
173422
173446
173447
173410
173399
173435
173458
173454
173447
173452
173417
173490
173474
173587
173519
173499
173526
173536
173494
173499
173471
173476
173513
173548
173553
173506
173516
173428
173377
173388
173476
173525
173554
173624
173643
173461
173442
173510
173470
173401
173425
173460
173576
173666
173549
173504
173493
173465
173476
173599
173520
173416
173426
173467
173428
173437
173511
173503
173443
173556
173534
173546
173503
173570
173548
173523
173459
173358
173406
173469
173541
173599
173615
173594
173495
173514
173568
173546
173463
173459
173461
173473
173544
173591
173446
173398
173429
173490
173521
173573
173529
173670
173686
173615
173596
173505
173530
173498
173456
173513
173553
173633
173565
173637
173590
173468
173352
173306
173328
173519
173617
173727
173719
173701
173666
173595
173572
173589
173561
173545
173574
173546
173512
173569
173569
173527
173541
173546
173523
173524
173561
173653
173685
173606
173597
173529
173501
173558
173570
173600
173604
173655
173674
173586
173614
173582
173547
173655
173622
173641
173637
173679
173715
173716
173723
173644
173660
173617
173578
173581
173606
173696
173728
173652
173605
173519
173533
173525
173572
173563
173609
173624
173699
173693
173687
173660
173618
173665
173626
173589
173577
173691
173637
173664
173738
173598
173647
173708
173825
173820
173733
173752
173699
173682
173720
173637
173657
173657
173616
173638
173613
173636
173683
173808
173777
173807
173713
173709
173694
173648
173650
173744
173688
173766
173776
173556
173513
173609
173625
173631
173630
173721
173840
173845
173781
173680
173669
173690
173671
173665
173622
173585
173661
173739
173794
173731
173729
173792
173728
173795
173799
173751
173734
173817
173773
173697
173655
173667
173709
173714
173759
173815
173710
173754
173704
173668
173677
173689
173797
173804
173845
173795
173755
173738
173750
173706
173658
173688
173763
173787
173718
173836
173885
173888
173869
173856
173885
173877
173870
173807
173804
173798
173807
173860
173894
173821
173816
173787
173792
173760
173737
173804
173856
173900
173811
173729
173729
173711
173665
173695
173603
173587
173701
173870
173904
173860
173838
173823
173819
173818
173828
173818
173748
173772
173744
173753
173799
173745
173818
173854
173853
173871
173969
173885
173829
173800
173827
173898
173908
173913
173855
173845
173990
173981
173995
174072
174076
174075
173976
173890
173877
173884
173901
173769
173721
173545
173433
173499
173504
173566
173640
173615
173706
173627
173566
173537
173578
173638
173705
173602
173626
173760
173814
173955
174054
173926
173927
173828
173771
173789
173797
173893
173874
173869
173844
173750
173716
173749
173762
173803
173781
173964
174029
173922
173961
173836
173882
173804
173824
173844
173800
173734
173879
174002
174017
174043
173984
173998
173966
173905
173943
173962
173952
173944
173922
173838
173881
173887
173826
173827
173871
173952
174007
174033
173958
173968
173948
173926
173824
173779
173875
174010
174138
173907
173927
173895
173854
173841
173836
173892
173890
173885
173897
173960
174048
174029
174065
173995
173972
173948
173925
173958
173941
173948
173943
173962
174050
174027
174002
173965
173917
173978
173910
173981
174004
173940
174057
174153
174018
173992
173941
174007
174076
174020
173978
173884
173946
173988
174017
174043
173981
173974
174006
174005
174059
173990
174051
174012
173996
174011
174029
174071
173969
173926
173981
173998
174009
173912
173863
173991
173993
174018
173955
173955
174023
174019
173939
173830
173769
173763
173873
173995
174019
174042
173921
173920
173886
173800
173808
173872
173961
174062
174076
174030
174030
173880
173908
173898
173804
173825
173878
173925
174051
174028
174016
173881
173852
173944
173878
173876
173884
173928
173921
173982
174092
174001
173947
173953
173979
173936
173915
173972
174059
174189
174171
174087
174007
173985
173976
173954
173929
173984
174011
174013
174019
174110
174050
173959
173973
173994
173929
173978
174049
174108
174054
174004
174037
174021
174019
173939
173881
173978
174099
174006
174032
174015
174011
174048
174018
174061
173988
174051
174136
174104
174040
174005
173961
173939
173970
173932
173938
174004
174077
174059
174007
173999
174036
174079
174044
173974
173884
173967
173894
173947
173974
173887
173953
174016
174028
174014
174012
174127
174138
174086
174089
174084
174084
174069
173939
173897
173947
174063
174076
174067
174132
174170
174160
174082
174053
174039
174042
173992
174019
174050
174110
174034
174058
174068
174046
174051
173993
173958
174094
174159
174152
174155
174145
174088
173995
174068
173882
173984
174026
174240
174198
174049
174077
174138
174193
174139
174116
174084
174100
174085
174129
174112
174053
173991
174098
174128
174031
174023
174089
174160
174170
174105
174094
174003
173993
174063
174126
174202
174136
174159
174211
174168
174254
174103
174011
174036
174006
173930
173995
174109
174290
174254
174162
174084
174030
174041
173998
174066
174122
174150
174130
174111
174175
174063
174046
174081
174016
174045
174038
174021
174068
174172
174182
174149
174138
174149
174060
174082
174175
174302
174220
174100
174081
174034
174013
174057
174081
174114
174095
174156
174162
174229
174252
174165
174132
174110
174048
174055
174009
174178
174225
174091
174143
174155
174085
174040
173995
174016
174049
174073
174141
174096
174188
174298
174188
174217
174158
174092
174095
174150
174157
174105
174105
174067
174038
174154
174116
174171
174214
174208
174151
174049
174087
174151
174069
174060
174142
174234
174345
174264
174186
174157
174177
174210
174120
174086
174146
174176
174166
174220
174221
174232
174243
174237
174276
174229
174176
174260
174210
174176
174259
174213
174208
174228
174108
174100
173978
173978
174216
174253
174185
174180
174175
174153
174181
174192
174091
174114
174172
174216
174184
174180
174170
174080
174040
174075
174040
174063
174246
174271
174291
174262
174219
174200
174149
174147
174070
174078
174160
174079
174160
174363
174466
174294
174275
174265
174225
174288
174360
174354
174355
174350
174352
174297
174258
174203
174101
174090
174070
174061
174053
173897
173878
173857
173826
173798
173795
173806
173843
173889
173997
173985
174018
173917
173987
174081
174067
174257
174270
174259
174385
174242
174188
174211
174044
174010
173985
174163
174256
174220
174317
174233
174256
174223
174193
174190
174167
174185
174236
174119
174207
174200
174361
174358
174257
174238
174209
174261
174224
174242
174254
174187
174253
174292
174355
174248
174188
174255
174414
174339
174211
174137
174117
174224
174332
174189
174115
174111
174158
174217
174271
174259
174304
174308
174245
174074
173994
174059
174198
174300
174328
174284
174266
174211
174221
174262
174112
174148
174211
174294
174314
174235
174342
174234
174131
174077
174022
174069
174156
174250
174233
174254
174322
174288
174182
174176
174084
174125
174154
174324
174342
174331
174302
174270
174234
174182
174137
174182
174226
174207
174298
174295
174356
174249
174211
174163
174162
174288
174328
174279
174234
174163
174246
174182
174202
174326
174301
174225
174117
174143
174145
174130
174153
174139
174169
174254
174162
174133
174237
174176
174249
174252
174301
174225
174098
174040
174032
174096
174080
174055
174158
174239
174263
174201
174106
173995
173991
174056
174088
174211
174261
174130
174118
174109
174086
174147
174126
174121
174124
174100
174101
174100
174086
174138
174156
174129
174037
174179
174221
174139
174233
174180
174204
174176
174104
174073
174025
174085
174146
174199
174227
174117
174189
174211
174179
174117
174053
174156
174321
174378
174269
174064
174046
174146
174159
174203
174266
174117
174135
174206
174187
174115
174110
174184
174117
174168
174115
174088
174084
174168
174246
174275
174249
174229
174146
174223
174181
174125
174123
174159
174207
174145
174226
174277
174186
174135
174109
174139
174184
174191
174193
174112
174088
174153
174181
174234
174205
174226
174177
174150
174213
174209
174200
174215
174137
174139
174135
174088
174029
174138
174205
174148
174213
174256
174285
174196
174136
174174
174147
174247
174182
174146
174197
174258
174271
174210
174183
174155
174195
174267
174208
174164
174214
174180
174128
174064
174108
174145
174185
174180
174236
174250
174304
174300
174270
174207
174218
174181
174146
174184
174221
174174
174269
174292
174208
174253
174211
174156
174146
174124
174186
174207
174248
174218
174167
174183
174157
174241
174287
174349
174358
174368
174395
174221
174191
174150
174118
174083
174113
174154
174180
174247
174260
174275
174243
174196
174121
174189
174182
174205
174188
174151
174150
174252
174224
174236
174277
174313
174257
174212
174261
174308
174399
174227
174314
174240
174157
174142
174169
174286
174211
174129
174164
174278
174212
174164
174143
174126
174127
174213
174235
174190
174241
174291
174272
174199
174176
174218
174085
174173
174234
174206
174277
174350
174313
174262
174195
174283
174170
174213
174216
174100
174149
174290
174207
174176
174119
174154
174224
174290
174332
174214
174231
174243
174189
174225
174211
174157
174150
174108
174253
174281
174246
174201
174213
174130
174141
174210
174244
174288
174382
174366
174296
174247
174222
174225
174178
174219
174251
174293
174372
174279
174272
174362
174259
174313
174385
174320
174232
174215
174249
174290
174342
174372
174391
174363
174275
174329
174233
174216
174313
174247
174251
174315
174377
174333
174244
174269
174264
174286
174337
174348
174333
174364
174356
174397
174351
174258
174253
174158
174175
174246
174273
174388
174383
174343
174289
174283
174248
174296
174327
174324
174296
174272
174278
174279
174244
174250
174244
174228
174316
174249
174246
174289
174271
174248
174237
174327
174320
174377
174417
174374
174310
174303
174241
174341
174215
174285
174322
174319
174385
174403
174598
174578
174512
174482
174440
174453
174448
174420
174402
174360
174329
174279
174297
174174
173984
173970
173907
173921
173984
174019
174126
174054
174078
174170
174062
174023
174038
174080
174193
174146
174146
174234
174293
174264
174204
174191
174229
174277
174358
174350
174292
174312
174324
174278
174237
174212
174338
174323
174296
174316
174380
174372
174380
174409
174358
174263
174214
174242
174273
174277
174315
174306
174318
174239
174321
174305
174258
174265
174247
174216
174304
174378
174371
174299
174189
174199
174231
174273
174342
174385
174390
174447
174432
174389
174272
174362
174411
174350
174314
174422
174405
174406
174437
174356
174204
174270
174238
174266
174337
174367
174460
174491
174442
174404
174277
174184
174281
174309
174246
174269
174382
174372
174391
174394
174300
174421
174500
174487
174329
174350
174469
174527
174534
174446
174343
174310
174381
174436
174381
174336
174392
174442
174521
174533
174433
174431
174412
174367
174459
174416
174360
174339
174327
174387
174475
174402
174468
174440
174311
174274
174290
174392
174451
174419
174415
174442
174508
174503
174440
174399
174457
174444
174400
174364
174296
174351
174403
174355
174425
174437
174405
174386
174411
174425
174304
174293
174321
174325
174311
174248
174393
174459
174453
174368
174200
174239
174263
174331
174383
174335
174347
174436
174476
174502
174409
174359
174312
174338
174338
174300
174295
174360
174458
174414
174438
174480
174360
174361
174448
174386
174421
174429
174482
174401
174254
174285
174340
174380
174477
174472
174510
174452
174472
174481
174411
174307
174328
174314
174367
174418
174458
174497
174593
174571
174450
174446
174426
174333
174242
174269
174423
174526
174566
174531
174500
174418
174395
174414
174444
174426
174468
174462
174398
174375
174295
174373
174397
174365
174289
174270
174267
174363
174468
174500
174457
174459
174429
174383
174418
174380
174400
174463
174421
174399
174374
174396
174491
174459
174385
174364
174460
174508
174577
174529
174417
174360
174364
174352
174405
174472
174489
174468
174476
174501
174409
174430
174379
174402
174461
174430
174399
174440
174430
174421
174381
174390
174457
174449
174456
174422
174465
174548
174526
174479
174400
174411
174506
174537
174498
174488
174498
174512
174521
174535
174496
174420
174439
174417
174405
174356
174456
174461
174425
174447
174407
174359
174327
174312
174406
174431
174542
174540
174568
174560
174462
174378
174431
174393
174410
174427
174473
174515
174507
174515
174426
174452
174522
174512
174488
174529
174513
174435
174470
174461
174367
174371
174438
174446
174417
174354
174357
174389
174453
174534
174409
174386
174461
174483
174467
174430
174502
174554
174508
174459
174299
174442
174535
174554
174548
174480
174512
174551
174529
174531
174468
174360
174346
174378
174483
174534
174563
174439
174527
174614
174547
174405
174422
174416
174333
174386
174468
174502
174566
174520
174313
174435
174520
174542
174471
174538
174594
174630
174508
174498
174472
174530
174512
174495
174386
174405
174553
174633
174627
174649
174511
174448
174480
174455
174468
174463
174539
174663
174600
174565
174634
174571
174535
174534
174505
174524
174537
174622
174627
174735
174579
174530
174534
174538
174525
174497
174535
174490
174488
174557
174564
174558
174535
174570
174529
174456
174506
174550
174533
174477
174381
174452
174475
174479
174536
174499
174517
174538
174550
174529
174480
174552
174561
174578
174521
174458
174439
174512
174526
174600
174635
174608
174603
174624
174592
174589
174677
174687
174650
174709
174658
174701
174639
174513
174476
174487
174556
174487
174437
174485
174375
174162
174150
174164
174155
174146
174248
174278
174319
174413
174369
174397
174451
174482
174386
174366
174498
174528
174610
174628
174608
174648
174686
174613
174542
174492
174533
174702
174695
174580
174574
174584
174594
174558
174645
174652
174791
174742
174700
174733
174619
174602
174663
174686
174674
174618
174685
174748
174768
174744
174751
174703
174633
174704
174676
174651
174647
174759
174785
174728
174748
174701
174668
174655
174615
174584
174709
174830
174742
174636
174659
174743
174678
174720
174671
174750
174881
174900
174858
174741
174734
174822
174822
174830
174841
174783
174824
174885
174895
174836
174803
174714
174662
174762
174773
174730
174802
174846
174885
174883
174872
174754
174771
174799
174662
174710
174874
174927
174933
175021
174946
174941
174921
174847
174851
174809
174865
175015
175066
174930
174890
174907
174866
174873
174963
174992
174967
175036
175035
174989
174875
174876
174918
174946
174971
174902
174912
174948
174959
175005
174894
174870
174857
174806
174860
174911
174980
175044
175030
174949
174846
174837
174851
174965
174976
174779
174729
174710
174786
174855
174961
174981
174899
174942
174902
174786
174845
174934
175017
174996
175057
175006
174880
174812
174848
174835
174928
174984
174947
174985
174979
174933
174871
174869
174877
174803
174887
174983
175032
174977
175021
174886
174848
174922
174964
174952
174971
174925
174899
174865
174873
174941
174936
174951
174957
174898
175058
175090
175106
175091
175032
174991
174955
174987
174936
174856
174879
174961
175054
175124
175068
174968
174949
175001
175101
175034
175031
175001
175011
174966
175049
175136
175077
175132
175017
174982
175096
175082
175126
175006
174906
174950
174961
175067
175051
174977
175075
175048
175037
175064
175021
175084
175048
175041
175015
174926
175013
175084
175115
175124
174985
175021
175016
175077
175043
174983
175019
174967
174947
174975
174995
175102
175079
175042
175086
175050
175020
174990
175046
175095
175103
175085
174940
174927
175039
175036
175067
175120
175124
175035
174916
174929
174941
175008
175055
174974
174956
175030
174985
175011
174955
174950
174948
175038
175080
174994
175066
175076
174975
174915
174919
175009
175068
175028
174935
174890
174752
174876
174905
175001
175093
175021
174941
174860
174873
174914
174903
174852
174833
174881
174856
174880
174910
174890
174937
174868
174899
174924
174867
174850
174843
174849
174780
174851
174750
174700
174819
174741
174675
174786
174717
174734
174748
174722
174782
174645
174699
174761
174772
174705
174659
174670
174728
174716
174698
174572
174513
174447
174481
174611
174721
174704
174615
174553
174522
174384
174472
174566
174595
174600
174533
174516
174406
174284
174321
174425
174463
174525
174427
174425
174413
174405
174381
174339
174261
174213
174326
174440
174413
174345
174280
174294
174325
174195
174099
174104
174155
174128
174143
174153
174065
174114
174136
174069
173980
173973
173990
173931
174018
173966
173917
174010
173925
173872
173927
173925
173942
173990
174019
174019
173908
173853
173811
173756
173792
173754
173780
173675
173623
173688
173763
173710
173715
173672
173599
173503
173515
173570
173664
173651
173571
173528
173389
173327
173304
173252
173298
173450
173453
173417
173452
173511
173352
173173
173138
173133
173218
173166
173141
173105
173102
173145
173178
173064
172926
172932
172934
172882
172856
172855
172849
172892
172824
172778
172685
172617
172578
172615
172761
172749
172731
172790
172572
172443
172437
172402
172403
172498
172551
172463
172441
172550
172525
172478
172533
172493
172513
172424
172428
172403
172362
172336
172262
172175
172081
171923
171862
171784
171762
171753
171657
171691
171652
171521
171485
171463
171441
171444
171566
171545
171450
171551
171620
171572
171491
171525
171515
171583
171606
171485
171488
171411
171328
171276
171278
171195
171178
171235
171275
171328
171247
171199
171144
171055
171091
171142
171104
170917
170926
170911
170930
170988
170954
170823
170784
170836
170752
170761
170769
170754
170635
170685
170700
170668
170561
170496
170466
170498
170437
170405
170379
170383
170311
170301
170208
170143
170120
170193
170139
170176
170127
170160
170168
170053
170041
169966
169959
169983
169938
169967
169834
169855
169846
169830
169790
169711
169690
169624
169578
169519
169549
169573
169655
169526
169487
169417
169384
169370
169339
169341
169274
169170
169177
169141
169158
169128
169112
169040
169141
169133
169068
169078
169078
168939
168926
168903
168910
168877
168853
168841
168858
168836
168730
168758
168638
168471
168506
168502
168580
168570
168560
168496
168427
168385
168354
168301
168263
168213
168245
168336
168286
168257
168233
168172
168170
168050
168089
167986
168005
168086
167946
167951
167921
167888
167903
167798
167677
167734
167716
167803
167781
167770
167733
167643
167571
167539
167575
167502
167517
167604
167505
167453
167374
167367
167370
167212
167312
167386
167397
167283
167262
167256
167282
167089
167099
167019
166969
166891
166852
166902
166997
167081
167157
167085
166990
166899
166869
166808
166789
166819
166809
166835
166699
166727
166692
166667
166790
166619
166619
166623
166592
166591
166580
166427
166367
166365
166412
166303
166323
166363
166310
166357
166385
166377
166347
166214
166260
166282
166290
166188
166140
166126
166092
166051
166038
166078
166067
166019
166044
166135
166149
166100
166021
165958
165813
165682
165660
165718
165836
165920
165900
165894
165894
165844
165782
165667
165635
165628
165552
165548
165556
165682
165585
165574
165580
165563
165600
165567
165455
165514
165509
165534
165522
165430
165332
165276
165360
165291
165294
165412
165332
165370
165387
165332
165303
165184
165210
165216
165166
165196
165231
165243
165259
165124
165086
165021
165074
165071
164984
165059
165109
165110
165093
165027
164981
164884
164941
164900
164932
164981
164869
164879
164899
164795
164967
165060
164966
164837
164805
164864
164828
164817
164871
164762
164726
164727
164738
164687
164634
164647
164732
164854
164854
164752
164750
164724
164747
164705
164687
164593
164613
164693
164640
164629
164513
164407
164482
164529
164465
164603
164667
164672
164637
164492
164497
164399
164340
164419
164414
164414
164428
164424
164408
164336
164304
164368
164386
164338
164374
164321
164350
164349
164269
164279
164259
164217
164255
164284
164424
164415
164235
164245
164264
164295
164205
164074
164106
164220
164228
164142
164196
164219
164181
164135
164099
164111
164134
164041
164101
164143
164113
164126
164053
163998
164040
164117
164093
164063
164056
164121
164056
164064
164065
164029
164049
164007
164031
163900
163840
163926
164006
164031
163994
164016
163934
163926
163962
164003
163960
163960
163939
164007
164074
164011
164038
163945
163909
163907
164013
163963
163863
163895
163880
163840
163812
163826
163799
163671
163702
163809
163891
163977
163931
163929
163801
163718
163760
163756
163704
163707
163734
163686
163847
163992
163831
163713
163666
163555
163622
163751
163758
163734
163743
163735
163685
163744
163748
163735
163785
163756
163677
163640
163694
163695
163775
163756
163807
163792
163756
163841
163874
163945
163940
163913
163886
163814
163825
163897
163801
163605
163617
163536
163449
163340
163257
163212
163296
163308
163333
163328
163300
163340
163438
163463
163488
163507
163503
163516
163587
163616
163606
163599
163701
163628
163586
163609
163654
163638
163586
163635
163647
163766
163692
163707
163663
163542
163591
163667
163703
163720
163670
163691
163680
163650
163661
163569
163579
163523
163537
163672
163740
163766
163793
163807
163667
163588
163641
163615
163609
163645
163590
163618
163705
163741
163668
163624
163630
163684
163689
163623
163663
163786
163793
163687
163625
163608
163612
163606
163544
163675
163699
163801
163752
163690
163692
163624
163718
163742
163767
163848
163812
163823
163889
163811
163738
163619
163677
163700
163667
163666
163713
163772
163733
163789
163803
163680
163690
163738
163704
163745
163786
163828
163930
163935
163805
163680
163721
163842
163865
163859
163834
163922
163916
163900
163966
163869
163824
163754
163768
163834
163888
163907
163897
163837
163855
163823
163793
163752
163745
163793
163820
163859
163921
164020
163936
163794
163787
163801
163812
163899
163902
163848
163986
163894
163865
163836
163845
163801
163796
163847
163878
164018
164080
164004
163851
163808
163860
163890
163835
163916
163958
164005
164030
163992
163984
163871
163831
163850
163838
163886
163832
163953
164005
163989
163983
163870
163848
163905
163983
164056
164036
164073
164084
164079
164008
163937
164083
164014
163964
163971
164014
164097
164064
164044
164065
163981
164050
164102
164013
163976
164029
164081
164192
164171
164085
164035
164060
163977
164043
164141
164096
164106
164131
164134
164150
164140
164184
164142
164086
164085
164089
164113
164206
164187
164255
164236
164188
164166
164110
164198
164235
164231
164229
164239
164206
164142
164224
164145
164134
164179
164147
164187
164264
164351
164350
164188
164229
164257
164288
164306
164221
164224
164278
164372
164357
164209
164240
164364
164403
164316
164240
164347
164457
164502
164405
164378
164373
164246
164273
164321
164340
164455
164539
164465
164397
164392
164307
164327
164423
164395
164394
164518
164521
164512
164515
164466
164481
164380
164352
164433
164454
164537
164569
164574
164493
164504
164528
164496
164437
164474
164510
164546
164571
164565
164625
164588
164510
164558
164527
164483
164644
164689
164681
164627
164652
164655
164654
164603
164580
164570
164540
164570
164677
164789
164782
164669
164655
164612
164623
164617
164668
164783
164801
164767
164755
164697
164600
164660
164674
164695
164719
164669
164736
164876
164958
164850
164772
164743
164721
164728
164743
164888
164909
164923
164992
164865
164829
164840
164810
164819
164855
164900
164861
164865
164958
164970
164979
164916
164877
164836
164906
164961
164929
164972
164951
164855
164906
164870
164894
164966
165046
165078
165050
164996
165045
164970
164975
165012
164999
164975
165051
165148
165172
165029
165011
164918
165083
165219
165212
165108
165061
165074
165190
165163
165169
165096
165046
165073
165070
164996
165053
165192
165323
165385
165443
165265
165145
165177
165180
165257
165261
165319
165295
165392
165311
165200
165221
165257
165276
165238
165330
165397
165383
165451
165445
165408
165458
165392
165394
165379
165289
165376
165448
165461
165457
165432
165404
165400
165363
165422
165405
165484
165462
165540
165530
165482
165513
165467
165461
165453
165415
165512
165494
165460
165500
165518
165507
165504
165533
165562
165513
165592
165553
165527
165592
165557
165564
165599
165585
165503
165585
165612
165606
165618
165691
165640
165609
165667
165687
165751
165775
165759
165879
165921
165911
165862
165883
165869
165837
165814
165713
165746
165741
165666
165669
165680
165585
165508
165373
165337
165326
165439
165553
165494
165462
165399
165421
165549
165659
165677
165640
165694
165829
165946
165815
165720
165746
165793
165932
165910
165869
165915
165981
165978
166007
165910
165905
165846
165868
165885
165912
166019
166032
165969
165975
165910
165943
165986
165958
165950
166024
166115
166117
166158
166100
166018
166033
166042
166130
166194
166144
166142
166142
166149
166175
166147
166101
166129
166165
166203
166162
166164
166086
166092
166150
166164
166123
166136
166188
166233
166157
166245
166258
166368
166261
166327
166390
166379
166351
166312
166241
166295
166259
166207
166246
166322
166381
166413
166499
166462
166390
166433
166397
166374
166464
166432
166433
166520
166413
166379
166313
166443
166538
166612
166651
166574
166509
166520
166401
166457
166441
166557
166573
166605
166592
166579
166592
166636
166690
166663
166512
166594
166652
166658
166694
166611
166580
166502
166559
166611
166580
166666
166802
166798
166775
166670
166669
166582
166590
166721
166788
166709
166730
166836
166757
166686
166688
166752
166694
166690
166623
166667
166760
166940
166838
166732
166747
166712
166674
166675
166604
166647
166769
166868
166775
166746
166784
166796
166800
166742
166753
166784
166839
166906
166883
166841
166829
166792
166784
166773
166834
166931
166975
166923
166935
166946
166962
167023
166924
166883
166846
166980
166977
167008
167082
167073
166972
166924
166902
166915
166889
167076
167142
167090
167104
167122
167125
167080
166980
167004
166940
166985
167023
167232
167280
167181
167212
167147
167206
167166
167105
167181
167181
167168
167153
167175
167204
167246
167258
167195
167100
167187
167189
167224
167194
167159
167185
167198
167133
167184
167144
167299
167332
167281
167284
167331
167385
167169
167183
167154
167259
167261
167313
167328
167436
167460
167468
167429
167404
167395
167344
167354
167413
167434
167382
167375
167361
167342
167357
167468
167516
167666
167546
167409
167446
167523
167490
167448
167349
167433
167468
167488
167539
167543
167574
167506
167455
167435
167509
167550
167468
167514
167611
167685
167675
167661
167725
167654
167573
167571
167494
167553
167695
167690
167654
167586
167670
167590
167628
167765
167721
167756
167786
167781
167795
167668
167612
167584
167588
167712
167683
167623
167580
167622
167723
167684
167683
167704
167740
167667
167585
167651
167647
167717
167896
167938
167889
167805
167760
167748
167756
167790
167769
167774
167801
167916
167935
167826
167800
167788
167738
167874
167952
167808
167918
167885
167955
167958
167866
167764
167695
167787
167881
167859
167866
167831
167855
167855
167934
167907
167804
167802
167932
168028
167999
167882
167868
167808
167851
167886
167992
168142
168089
168050
167977
168009
167993
168012
168020
167954
167969
168081
167998
167938
167979
167961
168094
168139
168078
167996
167911
167966
168082
168091
168102
168138
168152
168181
168050
168059
167938
167902
167991
168119
168112
168141
168115
168070
168102
168120
168090
168194
168288
168190
168261
168220
168135
168171
168230
168151
168140
168169
168226
168218
168237
168202
168257
168237
168221
168302
168216
168297
168318
168223
168206
168271
168399
168378
168321
168330
168263
168309
168407
168371
168331
168354
168491
168384
168473
168448
168369
168371
168389
168378
168411
168442
168469
168476
168360
168399
168415
168467
168495
168308
168275
168201
168334
168420
168454
168452
168348
168377
168457
168513
168582
168533
168457
168394
168347
168355
168368
168491
168588
168570
168501
168454
168430
168443
168445
168479
168434
168504
168641
168575
168501
168549
168601
168566
168484
168507
168393
168365
168448
168565
168636
168655
168636
168675
168656
168623
168635
168645
168737
168783
168804
168775
168756
168684
168599
168546
168557
168457
168443
168404
168388
168339
168463
168356
168267
168348
168295
168308
168361
168402
168393
168454
168561
168659
168643
168686
168690
168622
168604
168632
168660
168696
168737
168735
168646
168606
168601
168709
168820
168785
168840
168768
168813
168785
168684
168704
168665
168708
168759
168800
168743
168695
168804
168871
168904
168860
168808
168819
168811
168831
168804
168800
168823
168808
168798
168813
168778
168865
168890
168898
168950
168883
168900
168914
168921
168934
168880
168916
168846
168920
168930
168873
168930
168956
169031
169089
168900
168861
168906
168978
169052
169005
168991
168951
169009
169095
169047
168960
168951
169005
169057
168978
169009
168993
169003
169050
169046
169063
169058
169055
169121
169110
169139
169126
168986
168977
169047
169064
169046
169003
169086
169111
169216
169242
169171
169129
169073
169055
169233
169271
169182
169110
169132
169225
169164
169051
169105
169246
169249
169293
169247
169193
169259
169239
169182
169120
169083
169155
169193
169201
169152
169114
169142
169194
169220
169169
169167
169185
169229
169156
169123
169130
169134
169206
169193
169122
169084
169151
169215
169208
169266
169255
169329
169197
169189
169281
169123
169167
169205
169174
169218
169219
169173
169215
169221
169152
169121
169191
169207
169235
169236
169313
169286
169237
169153
169185
169239
169209
169274
169257
169283
169382
169447
169439
169388
169304
169216
169220
169259
169282
169381
169373
169403
169416
169394
169313
169295
169320
169351
169433
169465
169393
169357
169375
169267
169234
169258
169328
169431
169350
169448
169471
169465
169530
169463
169421
169353
169330
169357
169456
169567
169505
169453
169452
169450
169567
169431
169512
169455
169433
169484
169454
169495
169568
169564
169554
169414
169419
169451
169454
169386
169408
169492
169563
169509
169492
169521
169529
169481
169469
169563
169549
169624
169602
169535
169472
169487
169524
169538
169563
169619
169521
169527
169579
169682
169609
169567
169546
169475
169517
169552
169623
169771
169762
169730
169647
169571
169584
169587
169582
169741
169760
169806
169685
169712
169689
169509
169572
169544
169587
169628
169647
169681
169658
169667
169711
169643
169650
169700
169689
169757
169675
169690
169692
169703
169673
169568
169583
169660
169783
169856
169894
169816
169816
169768
169715
169640
169651
169753
169699
169748
169778
169800
169818
169725
169735
169734
169796
169847
169801
169805
169774
169797
169869
169765
169757
169737
169776
169833
169786
169818
169821
169815
169848
169827
169966
169822
169717
169702
169782
169818
169880
169952
169963
169963
169967
169905
169839
169917
169913
169887
169884
169888
169963
169900
169848
169793
169845
169842
169822
169870
169855
169896
169944
169870
169901
169923
169796
169797
169920
169956
170027
170057
169947
169882
169907
169916
169956
169802
169993
170046
170033
170073
170067
170049
169982
169978
169950
169948
169989
170040
170014
170023
170050
170044
170056
170009
170086
170004
170058
170072
170055
170127
170214
170115
170095
170049
170013
170071
170127
170209
170134
170143
170088
170080
170110
170226
170220
170184
170167
170274
170310
170283
170223
170223
170189
170194
170136
170169
170252
170136
170122
170262
170231
170200
170206
170144
170141
170172
170169
170281
170299
170226
170243
170274
170162
170118
170235
170242
170233
170297
170290
170275
170209
170177
170157
170206
170277
170194
170179
170304
170239
170259
170331
170317
170219
170237
170228
170206
170280
170293
170300
170425
170442
170412
170382
170358
170399
170351
170319
170442
170435
170415
170443
170395
170370
170348
170269
170299
170128
170006
169905
169997
169979
169946
170022
170031
170034
170006
170005
170091
170121
170185
170288
170342
170246
170162
170254
170275
170259
170442
170374
170344
170512
170468
170428
170311
170321
170358
170343
170323
170384
170470
170453
170451
170429
170442
170524
170482
170415
170442
170464
170569
170530
170490
170478
170374
170396
170476
170429
170484
170431
170453
170591
170622
170678
170625
170461
170454
170400
170430
170490
170584
170589
170568
170527
170489
170526
170463
170506
170484
170473
170540
170526
170543
170553
170454
170398
170423
170397
170441
170441
170583
170677
170644
170600
170486
170438
170493
170531
170505
170456
170519
170538
170548
170675
170577
170547
170658
170631
170575
170553
170609
170662
170720
170765
170615
170666
170650
170546
170583
170625
170694
170662
170645
170663
170622
170699
170673
170594
170657
170681
170775
170722
170638
170706
170662
170643
170657
170658
170701
170687
170751
170752
170751
170713
170629
170601
170664
170689
170648
170594
170641
170668
170664
170682
170619
170668
170641
170531
170520
170558
170623
170654
170700
170652
170454
170498
170523
170551
170611
170627
170693
170750
170713
170674
170651
170687
170625
170637
170708
170603
170634
170685
170649
170677
170695
170625
170528
170524
170555
170558
170660
170750
170704
170704
170675
170675
170651
170660
170724
170706
170608
170666
170727
170667
170635
170719
170717
170701
170741
170724
170780
170718
170779
170858
170809
170781
170803
170697
170706
170706
170775
170864
170872
170849
170811
170783
170723
170716
170900
170845
170914
170946
170868
170827
170772
170759
170782
170853
170831
170743
170860
170934
170958
171006
170882
170801
170755
170730
170841
170879
170893
170901
170879
170816
170731
170733
170732
170792
170809
170941
170995
171062
171029
170928
170845
170797
170829
170864
170943
170968
170949
170925
170874
170858
170812
170891
171035
170989
171043
170974
170965
170943
171009
170965
170870
170886
170939
170969
170948
170964
171024
171047
171120
171078
170919
170915
170912
170946
171051
171019
171163
171141
171073
171049
170995
171026
171032
171014
171014
171011
171011
170977
171047
171129
171164
171234
171187
171105
171112
171087
171166
171272
171205
171096
171082
171010
171117
171126
171116
171097
171202
171257
171216
171229
171164
171171
171159
171050
171029
171082
171182
171220
171222
171241
171177
171222
171188
171105
171198
171220
171276
171201
171210
171273
171249
171280
171336
171342
171181
171177
171289
171282
171310
171268
171163
171311
171246
171187
171199
171217
171277
171331
171427
171445
171369
171343
171233
171169
171185
171177
171309
171262
171376
171523
171372
171320
171313
171262
171340
171418
171396
171462
171471
171440
171331
171290
171342
171424
171429
171459
171477
171495
171343
171372
171286
171330
171451
171447
171378
171398
171414
171439
171522
171450
171382
171357
171454
171464
171390
171360
171462
171494
171454
171447
171381
171458
171422
171417
171459
171453
171569
171587
171550
171522
171426
171475
171513
171552
171499
171519
171556
171499
171546
171571
171517
171530
171569
171500
171507
171542
171557
171617
171572
171623
171631
171514
171548
171553
171599
171591
171628
171606
171590
171616
171636
171637
171621
171587
171591
171673
171772
171788
171701
171746
171733
171703
171743
171614
171599
171645
171699
171703
171722
171814
171721
171717
171681
171637
171637
171594
171723
171761
171775
171762
171684
171704
171723
171694
171732
171673
171698
171758
171761
171799
171783
171864
171787
171668
171746
171738
171871
171851
171829
171787
171707
171706
171731
171789
171799
171810
171903
172003
172006
172046
171929
171904
171849
171847
171902
171941
172010
172051
172060
172111
172042
171991
171939
171857
171791
171690
171719
171689
171672
171623
171591
171644
171675
171739
171698
171525
171584
171640
171669
171771
171835
171802
171784
171825
171787
171835
171942
172002
171979
171936
171890
171860
171902
171990
171995
171859
171967
171957
172070
172075
171878
171954
171983
171983
172059
171959
171994
172036
172038
172070
171979
172054
172137
171970
172000
171947
172050
172026
172127
172094
172029
172086
172043
172013
171981
171939
172016
172107
172094
172122
172029
172006
172014
171989
171997
171973
172112
172112
172183
172213
172138
172136
172137
172153
172142
172060
172062
172119
172098
172122
172117
172209
172312
172140
172044
172053
172133
172144
172168
172157
172077
172097
172150
172277
172258
172211
172243
172237
172263
172143
172089
172001
171935
172058
172103
172188
172286
172297
172281
172286
172180
172173
172135
172155
172140
172204
172268
172280
172251
172324
172213
172162
172155
172144
172155
171990
172124
172316
172328
172269
172190
172214
172179
172155
172156
172068
172122
172239
172157
172164
172219
172203
172117
172201
172143
172022
172107
172063
172034
172120
172099
172220
172217
172178
172124
172029
172115
172078
172071
172170
172072
172137
172119
172022
172056
172023
172080
172152
172178
172205
172154
172171
172061
172052
172007
171942
172041
172082
172224
172309
172257
172239
172153
172073
171991
171897
172014
172090
172096
172135
172079
172032
172083
172119
172142
172091
172128
172166
172155
172113
172144
172147
172132
172149
172068
172049
172043
172086
172229
172191
172114
172188
172158
172109
172117
172070
172018
172115
172059
172032
172028
172063
172094
172096
172103
171895
171955
172087
172130
172171
172153
172135
172118
172096
172146
172041
172047
172023
172025
172113
172112
172106
172013
172081
172230
172166
172044
172092
172066
172027
172006
172040
172098
172114
172059
172041
171985
171952
171996
171955
171942
172003
172059
172090
172049
172010
172152
172157
172158
172050
172043
171966
171892
171902
172036
171973
172069
172076
171967
172003
172071
172051
172007
171998
171993
171972
172005
172062
172052
172038
172027
172069
172054
171996
171900
171864
171862
171955
172042
172015
171969
172000
171945
171926
171931
171889
171912
171945
171942
172037
172032
172036
171972
171961
171983
172009
171982
171923
172007
171924
171850
171853
171799
171930
172007
171919
171930
171953
171956
171942
171981
171901
171895
171915
171932
171881
171830
171887
171945
171995
171961
171852
171873
171839
171777
171719
171853
171917
171860
171848
171888
171950
171921
171897
171829
171833
171811
171833
171832
171855
171793
171822
171897
171917
171765
171693
171710
171741
171775
171891
171869
171878
171783
171798
171829
171702
171691
171757
171710
171798
171790
171911
171851
171777
171760
171728
171755
171697
171690
171677
171759
171731
171696
171690
171761
171739
171729
171802
171800
171712
171672
171714
171600
171601
171705
171707
171672
171733
171785
171683
171656
171793
171791
171790
171790
171668
171685
171696
171757
171759
171657
171652
171704
171628
171579
171668
171753
171730
171732
171734
171703
171737
171730
171596
171520
171601
171799
171694
171705
171783
171734
171710
171723
171698
171604
171569
171588
171680
171711
171732
171782
171736
171653
171613
171619
171608
171602
171662
171717
171643
171588
171585
171512
171492
171466
171483
171606
171660
171627
171705
171628
171609
171592
171480
171533
171600
171510
171569
171548
171515
171558
171577
171584
171575
171529
171501
171480
171405
171504
171554
171659
171720
171723
171594
171571
171574
171502
171587
171781
171827
171798
171694
171658
171574
171628
171653
171629
171558
171439
171353
171278
171352
171227
171184
171294
171263
171237
171318
171299
171289
171280
171308
171342
171334
171370
171312
171376
171409
171465
171537
171461
171462
171537
171547
171586
171520
171514
171534
171615
171571
171459
171490
171482
171417
171508
171423
171506
171544
171605
171590
171575
171575
171500
171488
171408
171427
171458
171449
171461
171502
171524
171602
171677
171599
171502
171437
171476
171448
171524
171538
171530
171598
171527
171418
171501
171484
171445
171499
171552
171551
171529
171585
171647
171558
171513
171399
171439
171501
171540
171500
171491
171549
171563
171482
171472
171507
171529
171472
171428
171510
171396
171468
171544
171539
171444
171396
171465
171475
171507
171608
171590
171671
171677
171542
171576
171519
171511
171531
171452
171464
171459
171542
171590
171600
171548
171544
171565
171523
171489
171497
171471
171588
171642
171590
171504
171397
171465
171494
171541
171591
171512
171534
171581
171478
171503
171426
171468
171503
171509
171466
171441
171472
171503
171501
171446
171398
171434
171516
171507
171584
171582
171569
171557
171471
171349
171347
171366
171376
171433
171454
171422
171537
171561
171521
171327
171327
171368
171362
171388
171410
171387
171396
171440
171421
171320
171266
171304
171351
171382
171404
171386
171428
171416
171307
171344
171330
171369
171464
171479
171507
171505
171485
171463
171437
171445
171363
171369
171405
171418
171359
171389
171516
171487
171452
171314
171331
171501
171420
171343
171457
171459
171487
171398
171340
171293
171207
171274
171315
171377
171443
171386
171525
171531
171502
171397
171326
171346
171404
171384
171410
171471
171450
171433
171423
171352
171293
171302
171334
171387
171433
171478
171436
171407
171481
171354
171308
171398
171431
171364
171396
171404
171463
171350
171302
171293
171259
171303
171291
171363
171368
171340
171394
171442
171367
171357
171259
171282
171415
171439
171417
171422
171513
171648
171422
171345
171324
171373
171349
171346
171447
171410
171406
171505
171495
171392
171348
171424
171403
171380
171375
171408
171465
171391
171346
171305
171277
171339
171421
171397
171432
171505
171456
171462
171451
171415
171399
171348
171315
171373
171382
171386
171496
171551
171497
171456
171329
171345
171351
171365
171471
171434
171486
171542
171500
171425
171530
171376
171278
171435
171555
171482
171524
171473
171413
171429
171443
171421
171325
171302
171338
171372
171465
171525
171455
171457
171412
171382
171371
171439
171497
171580
171544
171542
171446
171442
171400
171440
171393
171444
171425
171459
171596
171569
171534
171562
171357
171383
171415
171472
171427
171377
171413
171482
171469
171458
171344
171413
171463
171514
171515
171468
171505
171523
171512
171461
171377
171342
171384
171379
171439
171418
171598
171647
171629
171501
171522
171508
171478
171488
171540
171489
171497
171485
171507
171498
171498
171436
171372
171380
171509
171516
171614
171597
171612
171588
171528
171490
171531
171514
171540
171552
171654
171598
171519
171542
171526
171524
171629
171631
171596
171635
171677
171701
171754
171658
171510
171534
171571
171591
171572
171596
171718
171692
171649
171685
171585
171524
171569
171597
171615
171707
171811
171726
171615
171608
171504
171492
171538
171655
171773
171748
171637
171643
171644
171599
171594
171642
171658
171583
171524
171524
171670
171661
171619
171615
171602
171643
171646
171554
171661
171670
171677
171691
171686
171639
171616
171678
171698
171763
171768
171794
172008
171949
171955
171878
171807
171802
171817
171746
171764
171652
171595
171575
171518
171408
171202
171237
171314
171337
171466
171398
171386
171443
171538
171494
171424
171521
171518
171508
171545
171645
171747
171738
171793
171791
171781
171694
171668
171646
171680
171703
171706
171767
171896
171816
171755
171758
171715
171694
171634
171630
171726
171794
171782
171774
171749
171794
171784
171697
171727
171814
171827
171815
171786
171761
171703
171673
171554
171552
171614
171833
171874
171922
171871
171842
171752
171718
171709
171705
171759
171731
171795
171821
171812
171866
171796
171748
171807
171785
171668
171669
171760
171781
171803
171773
171830
171777
171822
171729
171615
171688
171777
171828
171894
171837
171717
171805
171855
171864
171845
171781
171813
171851
171895
171880
171868
171934
171849
171837
171842
171831
171893
171913
171932
171919
171813
171776
171752
171813
171945
171946
171922
171905
171976
171991
171906
171881
171883
171891
171904
171798
171842
171830
171908
171919
171933
171960
171971
171897
171896
171923
171928
171906
171948
171917
171886
171972
171906
171881
171906
171886
171833
171771
171766
171925
171936
171844
171777
171721
171659
171728
171851
171919
171984
171948
171899
171835
171877
171900
171902
171888
171899
171916
171949
171976
171794
171767
171886
171897
171895
171942
171935
171929
171958
171958
171903
171856
171898
171891
171798
171873
171876
171913
171973
172038
171888
171822
171860
171855
171874
171843
171850
171971
172040
172101
172030
172016
171999
172038
172022
171959
172040
172081
171956
171999
171983
172040
172006
171911
171877
171959
171990
171965
171937
171985
171914
171863
171959
171930
171888
171913
171945
171960
171902
171963
171930
172027
172001
172068
172070
172010
172022
172009
172108
172143
171920
171953
172005
172006
172018
172032
172052
172080
172086
172034
171962
171963
171987
171973
171986
171946
172047
172115
172145
172189
172134
172116
171998
171940
171968
172025
172073
172143
172040
171972
171936
172061
172128
172176
172106
172062
172119
172066
172076
172112
172057
172023
172081
172068
172010
172079
172219
172195
172155
172089
172019
172050
172071
172080
172055
172055
172067
172107
172151
172151
172135
172069
172000
171993
172076
172132
172189
172347
172259
172121
171967
172022
172056
172004
172070
172108
172123
172106
172196
172207
172144
172174
172140
172102
172049
171988
172069
172148
172138
172138
172076
172103
172183
172164
172188
172119
172183
172276
172209
172167
171999
172080
172108
172061
171999
171986
172113
172253
172288
172257
172324
172306
172195
172048
172087
172138
172285
172275
172227
172282
172143
172076
172098
172074
172071
172179
172214
172158
172169
172175
172134
172148
172100
172127
172195
172224
172247
172183
172186
172269
172328
172293
172250
172237
172100
172046
172181
172197
172155
172211
172144
172199
172226
172340
172227
172154
172189
172216
172187
172172
172166
172165
172166
172200
172249
172201
172214
172193
172231
172202
172089
172216
172241
172300
172255
172087
172211
172281
172316
172354
172243
172206
172182
172156
172155
172142
172240
172426
172407
172444
172337
172308
172263
172249
172257
172252
172303
172362
172321
172277
172277
172282
172285
172287
172247
172261
172313
172319
172255
172329
172308
172303
172304
172287
172221
172189
172305
172378
172380
172423
172408
172510
172454
172348
172337
172280
172285
172347
172426
172475
172332
172312
172384
172407
172322
172344
172423
172411
172366
172375
172344
172358
172329
172213
172193
172229
172312
172303
172319
172427
172377
172362
172323
172348
172316
172299
172327
172236
172272
172401
172349
172383
172363
172396
172353
172295
172311
172305
172296
172430
172412
172415
172423
172368
172338
172286
172439
172399
172424
172505
172513
172456
172422
172436
172438
172453
172551
172667
172622
172656
172597
172521
172390
172226
172218
172180
172247
172219
172268
172185
172159
172115
172001
172146
172083
172073
172168
172212
172235
172298
172264
172236
172261
172320
172340
172332
172375
172384
172400
172418
172327
172327
172293
172335
172398
172381
172392
172457
172488
172662
172506
172485
172426
172428
172502
172476
172437
172452
172487
172469
172407
172468
172491
172428
172439
172419
172480
172468
172469
172438
172438
172453
172417
172404
172492
172481
172481
172573
172580
172580
172536
172507
172437
172437
172504
172461
172499
172581
172527
172566
172640
172553
172546
172511
172453
172507
172563
172545
172537
172598
172623
172611
172557
172558
172552
172448
172463
172580
172587
172631
172608
172660
172615
172591
172562
172561
172618
172618
172642
172638
172646
172563
172595
172569
172565
172494
172629
172704
172690
172668
172521
172606
172637
172637
172637
172673
172654
172584
172657
172714
172687
172770
172681
172667
172601
172574
172638
172728
172752
172731
172777
172845
172697
172669
172606
172532
172630
172653
172676
172643
172603
172586
172704
172639
172610
172613
172617
172595
172566
172564
172577
172636
172542
172512
172640
172557
172602
172592
172575
172532
172514
172504
172517
172640
172617
172584
172727
172734
172614
172702
172686
172653
172622
172605
172588
172525
172548
172569
172574
172556
172567
172662
172635
172572
172635
172614
172628
172692
172696
172672
172657
172669
172626
172607
172612
172495
172538
172675
172731
172819
172788
172738
172657
172610
172601
172546
172678
172756
172740
172748
172736
172733
172715
172704
172670
172584
172599
172663
172748
172675
172653
172707
172672
172657
172646
172610
172727
172823
172737
172649
172656
172659
172748
172568
172644
172644
172604
172671
172770
172782
172778
172734
172742
172748
172735
172664
172702
172737
172816
172790
172780
172809
172741
172710
172744
172770
172861
172847
172831
172841
172816
172840
172783
172782
172757
172742
172771
172842
172872
172912
172860
172877
172856
172888
172794
172615
172799
172961
173057
173022

[算法提取后的结构化特征]
# 由 EcgFeatureExtractor.extract() + toPromptText() 在手机端重建
# 与手表端发给 DeepSeek 的提示词文本一致（DS 实际收到的数据）
# 注意: 用户 profile（年龄性别）未存入测量记录，手机端重建时为'未知'
#       助手如需年龄性别做医学判断，需用户单独提供

[用户属性]

[全局指标]
采样率:500Hz 时长:30.6s 总点数:15310
R波检测:35个 平均心率:80bpm 范围:68-93bpm
R波位置(样本索引):215,638,1274,1401,2004,2310,2399,4025,4218,4380,4753,5229,5589,5965,6121,6667,7216,8522,8801,8998,9325,10255,10473,10816,11342,11780,11999,12230,12351,13187,13464,13594,14200,14476,14797
RR间期序列(ms，[*]为偏离均值>20%的异常间期，多为早搏/误检):846 [1272*] [1206*] [612*] [386*] [324*] 746 952 720 752 [312*] [1092*] [1098*] [558*] [394*] 654 [1860*] [436*] 686 [1052*] 876 [438*] [462*] [1672*] [554*] [1212*] [552*] 642
RR差值序列(ms):426,-66,-594,-226,-62,422,206,-232,32,-440,780,6,-540,-164,260,1206,-1424,250,366,-176,-438,24,1210,-1118,658,-660,90
SDNN:100.0ms RMSSD:161.5ms pNN50:75.0%
QRS宽度(本地估测,ms):53±6
PR间期(本地估测,ms):153±65
QT间期(本地估测,ms):411 QTc(Bazett):474ms QTc(Fridericia):452ms
R波平均振幅:0.37mV
R波极性:负向(负向提示导联反接/位置异常)
T/R振幅比:1.11(正常0.1-0.5，<0.1低平，>0.5高尖)
ST段偏移(本地估测,mV):0.041(正常±0.05，>0.1抬高，<-0.1压低)
信号质量:1.00 良好

[节律判别特征]
R波可靠性:边缘
可靠性指标:极端RR占比18% 有效RR占比82% 相邻RR跳变0% R峰-时长一致性0.86 异常段占比27%
提示:R波定位稳定性边缘：极端RR占比18%、有效RR占比82%，节律判读需谨慎
RR变异系数:0.131(轻度不齐)
Poincaré散点形态:鱼雷形(轻度不齐)
短-长RR配对数(早搏代偿):3个
注意:R波定位稳定性边缘，节律判读需谨慎，不宜仅凭CV/Poincaré下房颤诊断。

[逐秒分段]
时段(s)  R波  振幅范围(mV)  峰峰值(mV)  最大斜率(mV/s)  RMS(mV)
0.0-1.0  1  -0.77~1.18  1.96  134.50  0.40
1.0-2.0  1  -2.19~2.73  4.92  94.50  1.36
2.0-3.0  2  -1.41~1.19  2.60  174.00  0.66  ← 短RR+代偿间隙(早搏可能)
3.0-4.0  0  -2.43~2.19  4.62  93.50  1.29  ← 代偿间隙(配合前秒短RR)
4.0-5.0  3  -1.09~1.95  3.04  127.00  0.67
5.0-6.0  0  -1.09~0.76  1.85  148.00  0.50  ← 本秒无R波(心率<60或代偿间隙)
6.0-7.0  0  -0.66~0.74  1.41  112.50  0.31  ← 本秒无R波(心率<60或代偿间隙)
7.0-8.0  0  -0.84~0.53  1.37  94.00  0.27  ← 本秒无R波(心率<60或代偿间隙)
8.0-9.0  3  -0.61~0.39  1.00  139.00  0.13
9.0-10.0  1  -0.47~0.25  0.72  106.00  0.12
10.0-11.0  1  -0.66~0.33  0.99  126.50  0.16
11.0-12.0  2  -5.77~5.28  11.06  104.50  3.47
12.0-13.0  1  -0.56~1.66  2.22  123.00  0.53
13.0-14.0  1  -1.36~1.41  2.77  98.50  0.78
14.0-15.0  1  -1.29~1.51  2.80  96.50  0.81
15.0-16.0  0  -0.73~0.56  1.29  100.50  0.32  ← 本秒无R波(心率<60或代偿间隙)
16.0-17.0  0  -0.47~0.53  1.00  91.00  0.25  ← 本秒无R波(心率<60或代偿间隙)
17.0-18.0  3  -0.46~0.42  0.88  115.50  0.18
18.0-19.0  1  -0.34~0.34  0.67  119.00  0.11
19.0-20.0  0  -0.35~0.34  0.69  102.50  0.11  ← 本秒无R波(心率<60或代偿间隙)
20.0-21.0  2  -0.39~0.53  0.92  106.50  0.18
21.0-22.0  1  -4.71~1.79  6.50  109.00  1.96
22.0-23.0  1  -1.71~3.66  5.37  98.00  1.44
23.0-24.0  2  -1.22~1.69  2.91  89.00  0.80
24.0-25.0  2  -1.39~1.16  2.55  108.00  0.70  ← 短RR+代偿间隙(早搏可能)
25.0-26.0  0  -0.86~0.95  1.82  95.50  0.46  ← 代偿间隙(配合前秒短RR)
26.0-27.0  2  -0.74~0.97  1.71  99.00  0.45
27.0-28.0  1  -0.74~0.41  1.14  104.00  0.23
28.0-29.0  2  -0.28~0.52  0.81  113.00  0.12
29.0-30.0  1  -0.61~0.47  1.09  111.50  0.21
逐秒RMS:0.405,1.364,0.657,1.294,0.672,0.498,0.305,0.272,0.134,0.119,0.163,3.470,0.532,0.782,0.809,0.318,0.247,0.179,0.114,0.109,0.177,1.965,1.442,0.800,0.702,0.457,0.451,0.234,0.117,0.210

[AI 解读]
# DeepSeek 返回的原始 JSON（未清洗，可能含 markdown 代码块包裹）
{
  "平均心率": 80,
  "心率范围": "70-93 bpm",
  "心率稳定性": "不稳定,因频发早搏导致心率波动大",
  "心率置信度": "中",
  "SDNN_ms": 100.0,
  "RMSSD_ms": 161.5,
  "pNN50_pct": 75.0,
  "HRV解读": "HRV指标异常高,但受早搏干扰严重,可能因剔除不彻底或自主神经调节活跃,不宜作为自主神经功能参考。",
  "HRV置信度": "低",
  "节律判断": "频发早搏（可能为室性早搏或房性早搏）",
  "RR间期规律性": "不规律,RR序列中存在多次短RR（早搏）及代偿间歇,变异系数0.131,Poincaré散点呈鱼雷形,短-长配对数3个。",
  "早搏提示": ["2.0-4.0s 短RR+代偿间隙（早搏可能）", "24.0-26.0s 短RR+代偿间隙（早搏可能）"],
  "节律置信度": "中",
  "PR间期_ms": 153,
  "PR判断": "正常范围（120-200ms）,但误差较大,仅作参考",
  "PR置信度": "低",
  "QRS宽度_ms": 53,
  "QRS判断": "明显偏窄,可能因R波负向检测或阈值设置误差,需结合波形确认",
  "QRS置信度": "低",
  "QTc_ms": 474,
  "QTcFridericia_ms": 452,
  "QTc判断": "QTc（Fridericia）452ms在正常上限（<460ms）,但Bazett 474ms偏长,需警惕QTc延长",
  "QTc置信度": "中",
  "间期数据来源": "本设备本地算法估测,误差约±15ms,QRS和PR误差较大",
  "信号质量": "良好（RMS大部分>0.1,但个别段振幅低）",
  "噪声段": ["11.0-12.0s RMS极高（3.47）可能为干扰", "19.0-20.0s RMS偏低（0.11）"],
  "异常提示": [
    "频发早搏（≥3个短-长配对）",
    "T/R振幅比1.11显著升高（正常0.1-0.5）,可能提示高钾血症或T波异常,需复查确认",
    "R波极性负向,提示导联反接或位置异常",
    "QTc（Fridericia）452ms接近正常上限,需结合临床评估"
  ],
  "综合解读": "18岁男性,腕表单导联ECG显示频发早搏（可能为室早或房早）,伴有T/R比值显著增高和QTc临界延长。R波负向提示导联反接。由于早搏干扰,HRV指标不可靠。整体数据提示可能存在心肌电异常,需行标准12导联心电图进一步评估。",
  "健康建议": [
    "建议就医复查标准12导联心电图,明确早搏性质（室早/房早）及频率",
    "检测电解质（尤其血钾）,排除高钾血症导致的T波高尖",
    "复查QTc是否真性延长,以及有无长QT综合征风险",
    "注意导联放置正确（腕部位置可能影响极性）"
  ],
  "免责声明": "本报告基于腕表单导联ECG统计特征生成,间期为本地算法估测,仅供健康参考,不作为医疗诊断依据。如有不适请就医复查标准12导联心电图。"
}
