========== ECG 算法诊断包 ==========
测量时间: 2026-07-16 18:26:20
测量时间戳:1784197580005
采样率:500 Hz
数据点数:15410
时长:30.8 秒
分析方法:heartvoice

[原始 ECG 数据]
# 单位: mV×1000 整数（如 500 = 0.5mV，-1000 = -1.0mV）
# 采样率: 500 Hz，连续采样，无降采样无压缩
# 用途: 助手据此复现本地算法行为（基线漂移/噪声段/R波检测）
# 格式: 每行一个数值，行号=采样点索引（第1行=索引0，即 t=0.000s）
151284
151407
151541
151604
151511
151362
151252
151172
151216
151294
151380
151584
151646
151659
151602
151403
151357
151327
151247
151322
151411
151525
151597
151699
151588
151481
151502
151410
151396
151488
151606
151728
151761
151781
151677
151510
151467
151478
151458
151547
151600
151715
151864
151808
151679
151595
151702
151657
151597
151640
151654
151741
151951
152057
151956
151825
151746
151664
151582
151698
151772
151929
152058
152013
151991
151901
151762
151630
151714
151807
151836
151991
152057
152027
151895
151796
151859
151856
151830
151819
151870
152017
152086
152080
152080
151922
151843
151771
151728
151799
152040
152193
152300
152299
152153
151988
152089
152035
151971
152103
152179
152152
152253
152271
152206
152041
151969
151929
151934
152021
152041
152119
152258
152321
152238
152035
151962
151992
151952
151991
152073
152223
152311
152352
152237
152126
152015
151864
151885
151988
152143
152260
152270
152272
152269
152082
151959
151824
151844
151858
152051
152126
152193
152303
152293
152140
152070
151966
151917
151870
151949
152086
152227
152384
152281
152088
152007
152014
151979
151993
152120
152222
152239
152197
152103
152086
152091
152044
151993
152065
152213
152340
152428
152411
152370
152236
152245
152103
151918
152011
152154
152347
152501
152513
152406
152235
152170
152117
152126
152170
152252
152347
152404
152380
152316
152186
152191
152107
152124
152196
152283
152359
152379
152432
152425
152392
152341
152211
152115
152062
152168
152272
152361
152432
152401
152304
152293
152225
152064
152084
152285
152512
152702
152671
152573
152458
152422
152319
152136
152205
152370
152462
152570
152587
152563
152415
152444
152386
152276
152208
152411
152490
152636
152675
152684
152539
152437
152381
152276
152374
152518
152553
152598
152668
152734
152528
152425
152399
152300
152384
152435
152585
152745
152849
152736
152481
152423
152339
152386
152459
152598
152633
152684
152816
152842
152667
152572
152449
152344
152336
152477
152587
152666
152810
152873
152690
152628
152585
152503
152445
152551
152703
152927
152928
152811
152706
152681
152558
152505
152432
152618
152784
152911
152976
152994
152778
152694
152609
152486
152511
152651
152813
152868
152982
153005
152795
152729
152720
152784
152671
152755
152906
153027
153087
153113
152948
152876
152751
152649
152676
152808
153003
153059
153096
153078
152881
152885
152889
152789
152765
152852
152871
152913
152954
152983
152951
153096
152966
152834
152804
152852
152961
153057
153109
153069
152997
152973
152883
152796
152715
152945
153095
153145
153196
153110
152962
152997
152913
152849
152871
152955
153002
153033
153157
153233
153165
153123
153013
152925
152895
153011
153147
153143
153301
153324
153226
153177
153097
153021
153023
153026
153175
153151
153265
153293
153167
153201
153103
153002
152954
152961
153098
153174
153246
153355
153326
153232
153037
152886
152864
153032
153164
153220
153264
153282
153164
153095
153093
153014
153083
153131
153180
153236
153285
153313
153243
153163
153069
152996
152953
152996
153212
153392
153514
153494
153328
153285
153206
153088
153031
153235
153428
153405
153621
153699
153598
153392
153437
153389
153296
153301
153378
153454
153449
153522
153385
153079
152965
152779
152685
152673
152764
152825
152951
153101
153074
153033
152956
152956
152972
152941
153106
153256
153416
153467
153380
153231
153119
153166
153231
153272
153368
153446
153466
153581
153406
153280
153315
153259
153211
153216
153335
153447
153536
153592
153558
153450
153436
153294
153234
153194
153315
153530
153640
153682
153567
153434
153349
153279
153287
153339
153445
153496
153607
153713
153602
153538
153673
153494
153451
153503
153682
153661
153631
153733
153719
153651
153677
153611
153535
153436
153590
153625
153782
153897
153832
153814
153681
153591
153563
153584
153761
153789
153896
153902
153886
153889
153861
153627
153593
153674
153854
153926
154019
154021
153964
153921
153832
153680
153485
153491
153628
153782
154043
154211
154157
153947
153862
153712
153614
153628
153744
153809
153905
154026
153871
153672
153719
153731
153698
153710
153829
153820
153861
153866
153826
153809
153762
153655
153544
153599
153722
153562
153684
153741
153883
153916
153871
153683
153521
153527
153703
153741
153808
153885
153800
153642
153563
153581
153555
153533
153630
153751
153898
153883
153838
153702
153653
153601
153586
153630
153571
153646
153758
153838
153763
153656
153728
153722
153641
153513
153664
153787
153919
153942
153894
153836
153778
153596
153525
153575
153760
153855
153881
153896
153830
153747
153682
153704
153694
153598
153669
153859
153980
154090
154026
153927
153916
153848
153723
153608
153730
153817
153846
153996
154021
153909
153773
153674
153610
153594
153770
153883
153933
154059
153979
153860
153817
153729
153644
153655
153815
153864
153955
153935
153851
153829
153906
153829
153783
153719
153751
153888
153957
154024
154058
153962
153887
153836
153755
153591
153713
153832
153925
154024
154059
154098
154073
153932
153803
153648
153766
153957
154013
153991
153941
153914
153888
153949
153808
153908
154056
153990
154106
154160
154154
154046
154009
153955
153861
153871
153998
154065
154156
154215
154207
153999
153867
153855
153823
153832
153962
154155
154211
154221
154261
154242
154067
153928
153922
153847
154030
154067
154176
154264
154259
154229
154071
153952
153941
153916
154051
154198
154180
154321
154279
154279
154210
154095
154047
153978
154067
154130
154349
154273
154300
154254
154161
154090
154020
153961
154046
154219
154426
154485
154377
154300
154163
154145
154130
154154
154175
154134
154269
154394
154406
154267
154097
154108
154093
154052
154162
154234
154315
154444
154425
154358
154223
154216
154070
153991
154085
154264
154339
154389
154362
154396
154311
154221
154027
154014
154208
154362
154454
154540
154542
154425
154328
154240
154035
154005
154099
154339
154478
154556
154575
154518
154389
154286
154188
154122
154235
154388
154444
154569
154572
154530
154359
154302
154224
154085
154254
154364
154472
154377
154338
154377
154412
154488
154393
154327
154395
154494
154537
154489
154430
154401
154361
154390
154270
154201
154280
154504
154597
154674
154618
154590
154543
154450
154386
154380
154456
154469
154563
154649
154652
154605
154469
154426
154422
154331
154316
154422
154476
154560
154614
154579
154505
154375
154299
154318
154429
154602
154731
154794
154712
154734
154662
154650
154553
154515
154622
154778
154829
154908
154917
154850
154701
154448
154246
154091
154076
154205
154159
154130
154292
154312
154311
154192
154053
154111
154195
154311
154372
154534
154597
154625
154580
154498
154423
154452
154603
154618
154631
154733
154832
154785
154649
154582
154395
154387
154500
154768
154885
154970
154949
154864
154777
154716
154667
154597
154655
154755
154809
154871
154927
154953
154858
154837
154741
154657
154716
154890
155035
155199
155147
154984
154807
154771
154634
154601
154814
154972
154980
155095
155064
155010
154884
154811
154666
154658
154669
154796
154819
154860
154957
155034
154978
154993
154856
154725
154722
154855
154956
154968
155082
155030
154926
154917
154819
154695
154753
154888
154929
155026
155148
155159
155134
155079
154949
154781
154880
154997
155057
155132
155207
155144
155000
154987
154937
154777
154920
155041
155079
155164
155226
155358
155213
155085
154976
154828
154813
154917
154978
155116
155267
155342
155273
155103
154969
154894
154874
154943
155049
155102
155219
155321
155156
155024
154932
154777
154801
154945
154965
155118
155216
155289
155198
155067
154853
154749
154739
154831
154941
155119
155247
155292
155193
155020
154937
154811
154773
155011
155117
155197
155209
155222
155154
155117
155028
154958
154989
155093
155035
155128
155226
155416
155460
155318
155076
155040
155066
155046
155092
155222
155452
155580
155510
155418
155313
155148
155190
155226
155293
155409
155442
155627
155647
155512
155332
155189
155145
155264
155419
155534
155539
155429
155380
155322
155232
155110
155288
155440
155441
155516
155486
155499
155444
155331
155253
155160
155148
155244
155354
155453
155419
155454
155461
155403
155336
155203
155219
155251
155310
155472
155563
155500
155499
155314
155246
155225
155172
155243
155327
155423
155634
155663
155618
155422
155253
155156
155240
155367
155447
155495
155589
155602
155496
155424
155382
155200
155236
155399
155528
155510
155504
155621
155597
155464
155389
155277
155252
155241
155364
155446
155500
155594
155618
155517
155527
155392
155309
155410
155527
155586
155663
155793
155672
155457
155402
155291
155342
155487
155526
155553
155646
155690
155702
155619
155573
155518
155450
155421
155549
155639
155671
155737
155687
155714
155632
155507
155522
155564
155664
155708
155798
155848
155796
155682
155625
155590
155591
155577
155603
155686
155818
155904
155901
155773
155699
155590
155589
155609
155621
155661
155813
155930
155879
155636
155595
155480
155576
155754
155708
155788
155854
155964
156004
155856
155674
155548
155501
155580
155702
155765
155917
156069
155977
155790
155734
155623
155627
155686
155831
155889
155965
155999
155933
155834
155912
155739
155638
155687
155816
155961
156021
156075
156203
155993
155916
155818
155802
155834
155908
155992
156069
156217
156187
156057
155918
155834
155829
155942
156095
156161
156162
156224
156157
156083
156009
155884
155943
155925
156063
156232
156292
156269
156240
156030
155988
155840
155790
155937
156137
156171
156213
156207
156139
155961
155975
155865
155869
155938
156030
156022
156167
156265
156193
156042
155985
155836
155811
155796
155860
155960
156115
156210
156201
156111
156025
155774
155821
155876
155941
156069
156136
156118
156076
156051
155979
155866
155857
155956
156072
156091
156141
156237
156282
156306
156160
156072
156067
156191
156283
156390
156397
156559
156560
156341
156202
156047
156014
155884
155918
155989
155959
156010
155890
155786
155740
155596
155495
155476
155605
155813
155930
156097
156174
156175
156039
155926
155888
155937
155988
156142
156214
156383
156347
156290
156133
156054
156030
156032
156173
156179
156156
156273
156327
156190
156207
156090
156022
155969
156081
156146
156153
156265
156291
156235
156176
156094
155990
155995
156184
156243
156259
156454
156376
156187
156166
156143
156050
155956
156084
156275
156253
156373
156424
156310
156308
156222
156221
156141
156216
156310
156344
156503
156510
156401
156261
156079
156060
156141
156210
156335
156331
156435
156520
156365
156270
156258
156234
156281
156310
156452
156507
156544
156502
156368
156365
156318
156261
156272
156374
156398
156400
156487
156617
156533
156375
156317
156332
156256
156386
156512
156523
156620
156622
156494
156389
156275
156265
156214
156320
156407
156491
156559
156580
156546
156368
156194
156150
156201
156398
156524
156514
156594
156660
156496
156393
156303
156196
156239
156246
156377
156446
156547
156522
156429
156441
156393
156298
156248
156289
156428
156458
156546
156580
156556
156440
156327
156176
156209
156248
156323
156386
156524
156525
156410
156309
156244
156263
156197
156177
156271
156358
156530
156589
156584
156419
156290
156296
156314
156295
156360
156413
156517
156587
156678
156553
156287
156234
156382
156505
156601
156666
156738
156723
156625
156509
156373
156265
156394
156442
156670
156707
156832
156807
156706
156619
156408
156323
156288
156355
156558
156614
156763
156861
156875
156724
156521
156419
156379
156437
156636
156641
156685
156616
156570
156502
156460
156487
156429
156405
156626
156681
156722
156755
156689
156535
156443
156285
156258
156316
156499
156705
156891
156857
156692
156578
156481
156396
156338
156421
156464
156447
156635
156732
156701
156536
156403
156388
156341
156393
156480
156554
156635
156706
156641
156589
156468
156400
156382
156302
156481
156578
156702
156757
156714
156658
156512
156424
156409
156496
156644
156708
156847
156861
156742
156643
156635
156541
156468
156370
156540
156661
156854
156906
156847
156653
156598
156513
156437
156373
156526
156728
156947
156983
156831
156646
156588
156562
156485
156604
156741
156668
156767
156974
156959
156813
156678
156558
156530
156513
156646
156773
156902
156988
156922
156744
156684
156603
156498
156482
156713
156816
156995
157029
156954
156862
156727
156669
156631
156571
156703
156725
156772
156863
156929
156848
156841
156736
156624
156540
156677
156731
156824
156876
156771
156759
156835
156774
156718
156679
156754
156858
156943
156973
156925
156786
156693
156715
156743
156775
156918
156898
156946
157014
156996
156871
156795
156822
156712
156599
156718
156776
156936
157080
157153
156977
156883
156792
156685
156658
156730
156833
156967
157090
157064
156892
156938
156895
156874
156879
156947
156971
157049
157135
157167
157060
156908
156856
156819
156793
156944
157038
157195
157251
157171
157075
157012
156956
156906
156923
157066
157106
157086
157109
157202
157064
156982
157032
156839
156839
157029
157056
157188
157336
157260
157110
157002
157080
157006
156920
157041
157075
157165
157251
157317
157244
157060
157011
156907
156921
157010
157104
157241
157371
157398
157237
157040
157063
157085
157017
157143
157170
157317
157433
157391
157381
157292
157345
157135
157147
157282
157365
157533
157698
157761
157636
157384
157314
157207
157122
157072
157124
157153
157169
157133
156959
156793
156740
156647
156678
156769
156902
157090
157149
157060
157028
156996
157021
157074
157049
157082
157240
157363
157483
157521
157433
157296
157236
157212
157200
157224
157313
157484
157647
157619
157514
157352
157336
157342
157384
157365
157408
157458
157568
157595
157621
157498
157404
157288
157263
157431
157517
157640
157806
157812
157716
157519
157457
157448
157471
157607
157659
157689
157708
157771
157764
157571
157529
157413
157501
157706
157737
157744
157848
157871
157784
157568
157576
157557
157464
157505
157607
157784
157901
158039
157885
157682
157658
157565
157587
157653
157677
157814
157844
157865
157883
157775
157736
157687
157653
157678
157825
157932
158017
158080
157864
157741
157627
157523
157502
157649
157773
157947
158004
158022
157933
157855
157766
157699
157604
157610
157693
157795
157927
157927
157882
157790
157785
157690
157571
157565
157632
157797
157862
157883
157904
157770
157783
157644
157564
157638
157725
157791
157892
157958
157915
157827
157719
157566
157592
157674
157723
157816
157868
157865
157926
157727
157775
157787
157592
157632
157767
157824
157906
158047
158038
157821
157896
157709
157686
157700
157805
157769
157879
158044
158074
157914
157820
157708
157663
157686
157822
157971
158079
158074
158071
157837
157746
157624
157572
157654
157856
158087
158200
158190
158116
157931
157931
157884
157821
157758
157838
157954
157955
158017
158022
157919
157994
157959
157898
157915
157968
158017
158125
158133
158091
157886
157866
157807
157708
157686
157695
157861
158173
158229
158234
158098
158034
157889
157820
157877
157884
157874
157955
157995
158007
158097
158160
158057
157935
157889
157902
158004
158082
158146
158094
157996
158008
157974
157827
157856
157979
158184
158205
158239
158213
158025
157914
157848
157803
157781
157822
158008
158169
158218
158222
158097
158003
157972
157861
157858
158001
158091
158148
158240
158295
158193
158121
158017
157895
157882
157968
158116
158109
158174
158257
158089
158039
158043
157944
157991
158103
158198
158352
158250
158271
158185
158150
158047
157908
157948
158066
158143
158212
158218
158310
158247
158221
158192
158156
158056
158214
158329
158351
158447
158479
158321
158260
158133
158004
158024
158156
158407
158453
158562
158585
158389
158302
158284
158160
158141
158214
158236
158293
158418
158463
158320
158217
158187
158195
158248
158272
158295
158336
158400
158409
158375
158418
158308
158222
158235
158260
158398
158487
158481
158502
158384
158245
158154
158166
158296
158458
158554
158535
158576
158572
158393
158355
158306
158124
158145
158311
158455
158664
158705
158641
158544
158489
158426
158329
158305
158278
158418
158487
158660
158752
158635
158595
158504
158304
158297
158414
158518
158578
158662
158764
158690
158541
158553
158518
158431
158429
158549
158658
158819
158796
158583
158502
158527
158562
158520
158551
158672
158756
158841
158795
158744
158734
158784
158561
158491
158626
158813
158818
158861
158920
158795
158710
158600
158527
158533
158620
158750
158792
158869
158861
158763
158704
158540
158438
158472
158597
158766
158856
158886
158930
158892
158863
158649
158558
158520
158592
158825
158814
158893
158931
158798
158717
158688
158604
158540
158649
158764
158851
158991
159079
159020
158927
158890
158821
158813
158844
159005
159094
159193
159297
159092
158986
158959
158884
158798
158741
158777
158770
158657
158720
158546
158421
158370
158342
158412
158449
158571
158688
158804
158854
158729
158670
158735
158711
158707
158784
158969
159025
159072
159074
159057
159016
158972
158820
158775
158793
158890
158939
159097
159216
159285
159145
159043
158843
158795
158742
158933
159047
159226
159211
159112
159033
159041
158920
158794
158745
158934
159088
159183
159314
159202
159062
158992
158877
158861
158952
159088
159054
159203
159233
159184
159141
159137
158943
158909
158927
159021
159093
159306
159275
159188
159182
159163
158977
158956
159076
159202
159209
159300
159259
159279
159208
159096
159018
159004
159017
159156
159213
159374
159495
159365
159404
159283
159159
159114
159104
159231
159319
159417
159438
159358
159291
159291
159154
159133
159179
159362
159500
159499
159466
159323
159359
159310
159259
159236
159195
159288
159369
159469
159513
159463
159426
159377
159294
159258
159091
159298
159379
159506
159590
159464
159311
159259
159119
159025
159105
159336
159387
159429
159456
159389
159250
159312
159268
159146
159117
159202
159249
159329
159404
159441
159346
159369
159203
159198
159162
159277
159324
159467
159594
159513
159247
159288
159217
159173
159119
159233
159391
159516
159560
159536
159445
159356
159228
159132
159077
159315
159420
159485
159504
159509
159508
159451
159334
159263
159267
159375
159541
159544
159659
159609
159516
159376
159275
159211
159212
159388
159544
159494
159574
159601
159547
159405
159285
159240
159248
159316
159391
159429
159519
159560
159510
159434
159291
159126
159203
159334
159426
159482
159577
159534
159439
159341
159286
159167
159094
159146
159231
159446
159550
159648
159554
159485
159300
159186
159184
159316
159406
159585
159652
159687
159631
159507
159437
159293
159283
159399
159389
159463
159571
159596
159513
159456
159399
159367
159307
159426
159443
159520
159561
159582
159490
159445
159345
159296
159400
159521
159574
159617
159718
159603
159496
159435
159476
159371
159290
159421
159533
159564
159575
159584
159562
159445
159406
159319
159255
159389
159543
159596
159686
159607
159457
159290
159271
159220
159391
159570
159579
159633
159682
159683
159621
159485
159401
159291
159257
159388
159583
159636
159732
159674
159633
159563
159446
159295
159248
159454
159597
159658
159632
159600
159632
159586
159454
159489
159414
159451
159549
159622
159753
159774
159652
159529
159495
159371
159328
159460
159642
159724
159848
159859
159830
159684
159554
159508
159446
159575
159622
159708
159828
159818
159666
159575
159604
159553
159539
159590
159660
159770
159878
159874
159737
159593
159595
159512
159541
159526
159682
159767
159841
159847
159736
159649
159614
159575
159463
159626
159793
159722
159833
159841
159809
159712
159622
159535
159490
159583
159740
159834
159948
160000
159920
159722
159616
159517
159471
159657
159761
159791
159883
159974
160004
159875
159818
159646
159579
159689
159827
159806
159983
160001
159891
159780
159732
159581
159522
159665
159837
159956
160044
160122
160070
159854
159808
159708
159673
159890
159961
160034
159990
159990
160009
159928
159925
159850
159722
159775
159941
160043
160140
160116
160011
159914
159848
159754
159569
159705
159872
160005
160179
160225
160126
159982
159947
159771
159669
159764
159983
160047
160232
160197
160153
160061
160023
159840
159764
159847
159948
160128
160288
160245
160331
160161
160074
160034
160075
160131
160325
160442
160438
160423
160416
160329
160304
160236
159970
159905
159978
160023
159967
159823
159706
159634
159669
159609
159504
159565
159732
159831
159936
160068
160092
159982
159937
159881
159837
159944
160057
160023
160117
160194
160277
160214
160006
159953
159889
159950
160036
160108
160160
160145
160152
160148
160044
160042
159947
159999
160131
160185
160263
160250
160273
160186
160088
159988
159840
159963
160094
160048
160091
160221
160355
160217
160199
160117
159940
159951
160062
160105
160188
160246
160263
160232
160143
160046
159993
159987
160125
160249
160264
160356
160345
160240
160173
160071
159960
159934
160104
160247
160255
160276
160332
160214
160006
160041
160034
159912
159999
160125
160246
160272
160298
160258
160078
159957
159871
160063
160209
160265
160226
160324
160451
160287
160094
159973
159884
159863
159936
160097
160282
160362
160327
160191
160013
160039
159970
159970
160046
160089
160100
160153
160223
160153
160047
159997
159945
159924
159982
160039
160126
160248
160259
160166
160044
159995
159853
159799
159834
159971
160099
160182
160285
160144
160050
160007
159830
159748
159911
160010
160033
160086
160068
160020
159923
159799
159723
159779
159842
159960
160211
160254
160173
160086
159910
159826
159759
159768
159753
159860
159963
160098
160104
160057
159985
159903
159743
159636
159745
159875
159910
160064
160191
160049
159820
159692
159583
159592
159757
159847
159966
160078
160150
159991
159861
159819
159730
159668
159702
159776
159833
159913
160021
160044
159853
159717
159628
159691
159747
159817
159777
159785
159854
159817
159682
159607
159576
159605
159727
159869
159885
159838
159975
160015
159775
159608
159520
159521
159655
159851
159925
159979
159960
159935
159824
159854
159570
159553
159685
159792
159825
159879
159916
160010
159879
159720
159616
159626
159721
159861
159937
159913
159935
159933
159886
159831
159671
159602
159657
159746
159878
159924
160031
159995
159946
159798
159624
159611
159628
159748
159628
159723
159894
160010
160039
159877
159643
159624
159673
159752
159821
159834
159867
159831
159645
159670
159619
159659
159722
159800
159824
159897
159920
159883
159751
159665
159566
159514
159532
159657
159743
159828
159861
159865
159764
159706
159570
159487
159461
159626
159745
159913
159907
159819
159685
159632
159485
159464
159603
159672
159751
159813
159924
159845
159712
159695
159534
159477
159615
159773
159853
159916
159879
159881
159832
159610
159401
159484
159639
159625
159654
159701
159856
159843
159714
159740
159519
159462
159555
159700
159715
159799
159890
159868
159780
159583
159481
159439
159443
159661
159834
159788
159842
159764
159695
159815
159709
159603
159551
159605
159710
159773
159772
159690
159629
159633
159595
159494
159574
159777
159793
159825
159978
159888
159747
159622
159567
159534
159603
159735
159745
159856
160003
159929
159706
159603
159556
159554
159575
159637
159751
159843
159942
159863
159734
159687
159616
159560
159610
159781
159833
159905
159972
159846
159729
159651
159539
159593
159647
159686
159696
159744
159910
159955
159828
159695
159572
159562
159549
159796
159851
159724
159832
159863
159764
159668
159508
159402
159525
159779
159830
159825
159852
159868
159748
159739
159525
159418
159420
159601
159681
159737
159885
160017
159934
159744
159539
159516
159504
159628
159694
159680
159759
159787
159695
159642
159606
159459
159589
159730
159753
159858
159979
159943
159930
159919
159830
159736
159737
159858
159863
159946
159977
159870
159650
159465
159345
159238
159272
159306
159325
159342
159428
159539
159407
159257
159162
159059
159114
159408
159622
159666
159773
159821
159737
159638
159524
159496
159461
159467
159574
159601
159827
159971
159824
159743
159614
159596
159564
159596
159675
159701
159806
159864
159799
159661
159358
159404
159484
159597
159851
159855
159877
159925
159800
159711
159580
159541
159515
159645
159669
159702
159834
159928
159979
159826
159572
159518
159567
159656
159741
159794
159928
159908
159785
159777
159670
159572
159542
159648
159786
159861
159964
159972
159942
159764
159621
159527
159531
159610
159590
159630
159696
159745
159861
159778
159671
159619
159576
159615
159753
159722
159744
159947
159887
159601
159473
159453
159574
159691
159775
159814
159699
159810
159767
159745
159642
159611
159536
159581
159714
159772
159842
159844
159745
159617
159520
159398
159522
159516
159597
159646
159747
159737
159684
159567
159400
159365
159459
159517
159619
159691
159744
159691
159683
159531
159460
159458
159422
159491
159601
159646
159646
159702
159653
159574
159477
159397
159410
159471
159525
159567
159642
159699
159585
159564
159601
159416
159405
159472
159574
159606
159675
159667
159661
159649
159476
159469
159481
159459
159544
159508
159656
159766
159779
159559
159467
159410
159365
159494
159625
159675
159736
159844
159792
159618
159519
159495
159498
159586
159642
159562
159717
159839
159783
159750
159654
159573
159556
159532
159617
159632
159750
159806
159728
159540
159401
159348
159403
159524
159627
159667
159735
159777
159726
159638
159520
159468
159393
159379
159559
159631
159735
159790
159757
159680
159556
159472
159431
159521
159687
159574
159730
159675
159605
159521
159408
159410
159394
159457
159648
159627
159696
159774
159705
159558
159477
159459
159320
159313
159374
159518
159851
159869
159725
159601
159480
159364
159351
159414
159542
159534
159499
159576
159590
159567
159410
159328
159373
159359
159361
159343
159482
159690
159751
159648
159442
159383
159332
159341
159471
159490
159576
159650
159607
159461
159391
159326
159358
159393
159500
159519
159594
159683
159680
159561
159418
159266
159306
159303
159459
159534
159601
159582
159592
159514
159561
159454
159342
159369
159502
159530
159718
159742
159652
159510
159390
159394
159391
159418
159542
159596
159780
159776
159777
159569
159448
159432
159318
159391
159450
159463
159663
159666
159668
159644
159440
159399
159336
159392
159621
159650
159746
159805
159715
159593
159448
159463
159489
159451
159551
159663
159711
159741
159703
159586
159457
159379
159335
159319
159516
159562
159701
159704
159754
159597
159448
159411
159262
159338
159520
159634
159697
159794
159795
159660
159476
159351
159379
159437
159575
159606
159757
159652
159640
159624
159625
159577
159505
159515
159627
159637
159642
159747
159681
159649
159553
159484
159476
159455
159595
159542
159553
159712
159790
159696
159511
159465
159436
159434
159498
159550
159702
159836
159834
159661
159488
159430
159387
159275
159360
159380
159532
159597
159595
159570
159512
159471
159313
159316
159367
159398
159511
159563
159577
159483
159390
159344
159292
159223
159305
159405
159519
159584
159525
159419
159266
159206
159221
159279
159317
159284
159365
159557
159608
159426
159320
159398
159301
159384
159461
159560
159681
159804
159749
159665
159509
159400
159434
159446
159459
159466
159500
159511
159396
159196
158950
158885
158798
158765
158787
158899
159100
159179
159251
159226
159079
159066
158954
158978
159108
159267
159405
159543
159629
159529
159371
159238
159182
159263
159391
159433
159505
159534
159637
159667
159434
159353
159258
159253
159281
159335
159468
159560
159567
159409
159324
159313
159217
159184
159330
159426
159502
159552
159562
159560
159480
159382
159256
159238
159274
159340
159470
159567
159626
159437
159326
159418
159291
159230
159291
159370
159454
159570
159607
159533
159439
159341
159207
159097
159196
159277
159397
159515
159583
159562
159362
159252
159226
159184
159150
159325
159404
159471
159565
159470
159361
159313
159145
159122
159216
159274
159356
159440
159465
159460
159291
159262
159159
159111
159175
159281
159398
159396
159436
159453
159311
159126
159072
159045
159090
159183
159325
159251
159377
159377
159298
159134
159010
159007
159071
159093
159169
159291
159293
159201
159045
158976
158873
158875
159051
159084
159115
159247
159241
159152
159029
158967
158911
158825
158883
159040
159037
159184
159203
159088
158987
158905
158823
158808
158853
159011
159152
159145
159168
159111
159073
159054
158879
158820
158909
158939
158931
159068
159136
159107
158962
158984
158936
158913
158894
158897
159064
159185
159248
159109
158902
158903
158850
158881
158861
158986
159098
159075
159215
159206
159003
158990
158899
158799
158802
158934
159164
159325
159377
159360
159069
159029
158935
158803
158792
158929
159129
159225
159191
159218
159155
158944
158891
158900
158882
158929
158998
159135
159163
159136
158884
158810
158809
158869
158929
158994
159086
159179
159222
159181
158991
158952
158760
158718
158806
158887
158973
159081
159078
159055
159095
158985
158877
158775
158721
158901
159044
159074
159124
159141
158911
158865
158819
158631
158631
158852
159055
159154
159180
159152
158934
158944
158805
158705
158771
158785
158920
159094
159233
159154
158893
158810
158781
158757
158805
158884
158974
159034
159060
159007
158908
158933
158908
158841
158644
158917
159079
159071
159162
159145
159023
158948
158859
158750
158735
158864
158954
159073
159215
159202
158995
158903
158833
158755
158840
158927
159022
159113
159145
159122
158928
158844
158825
158798
158760
158924
159010
159105
159117
159055
158917
158848
158788
158727
158766
158845
158986
159037
159035
159057
159013
158949
158848
158761
158782
158895
159024
159068
159117
159139
159013
158867
158785
158668
158701
158787
158921
159056
159194
159139
158886
158946
158905
158779
158724
158811
158928
158970
159126
159203
159069
158972
158967
158807
158826
158820
158893
158997
159056
159143
158983
158893
158934
158899
158899
158931
159044
159046
159089
159162
159069
158976
158916
158891
158878
158893
159015
159109
159215
159262
159107
159054
158993
158859
158794
158887
159011
159101
159154
159181
159059
158936
158935
158793
158844
158989
159107
159127
159298
159279
159011
158954
158886
158879
158964
158932
159045
159126
159226
159166
159037
158898
158878
158821
158921
158962
159094
159184
159252
159188
159129
159140
159039
158942
158920
158952
159087
159180
159160
159289
159214
159089
159061
158889
158800
158845
159026
159127
159302
159350
159226
159142
159024
158922
158893
158963
159070
159105
159198
159178
158939
158840
158846
158908
159072
159130
159172
159319
159305
159299
159154
159020
158937
158830
158830
158915
159095
159088
159183
159220
159173
159033
158954
158944
158964
158979
159137
159220
159302
159320
159283
159294
159166
159061
159007
159107
159274
159371
159378
159343
159260
159120
158971
158863
158675
158582
158606
158660
158778
158804
158764
158743
158688
158631
158696
158690
158911
159061
159108
159118
159094
159012
158913
158884
158909
158922
159172
159303
159339
159414
159307
159154
159147
158909
158944
158921
159052
159185
159354
159408
159290
159148
159089
158996
158947
158933
159154
159323
159356
159368
159319
159248
159059
159037
159001
158972
159156
159215
159267
159288
159291
159210
159171
158984
158969
158934
159035
159181
159315
159400
159293
159158
159030
158981
158995
158907
159058
159254
159414
159394
159333
159192
159082
159018
159011
159059
159237
159262
159283
159413
159351
159222
159142
159033
158968
158946
159113
159206
159321
159409
159374
159298
159191
159084
159051
159119
159237
159274
159333
159371
159306
159151
159100
159056
158980
158980
159164
159366
159423
159439
159336
159185
159018
158863
158779
158881
159257
159318
159369
159397
159345
159193
159127
158985
158953
158852
159033
159078
159177
159253
159166
159108
159090
159014
158930
158932
159088
159076
159112
159155
159008
159056
159077
158914
158894
158947
159049
159006
159073
159226
159175
159098
158986
158902
158951
159023
159149
159142
159218
159267
159144
158991
158984
158979
158856
158931
159163
159320
159368
159267
159201
159053
158985
158917
158860
158805
159040
159024
159142
159284
159331
159180
159118
158972
158841
158759
158994
159061
159199
159220
159154
159010
158936
158979
158922
158917
159042
159081
159114
159141
159088
158939
158837
158671
158612
158692
158991
159090
159203
159230
159075
158965
158977
158854
158730
158706
158838
158907
158816
158943
159020
158957
158895
158751
158633
158643
158837
158882
158970
159084
158984
158821
158784
158765
158809
158796
158875
158880
159011
159180
159075
158953
158908
158841
158582
158462
158727
158928
159028
159266
159217
159169
159020
158863
158786
158798
158953
159032
159071
159126
159074
159124
159005
158978
158926
158892
159002
159046
159059
159153
159100
159021
158960
158828
158793
158832
159007
159069
159083
159127
159140
159050
159041
158965
158726
158694
158760
158817
159039
159241
159224
159127
159027
158847
158685
158611
158768
158989
159114
159081
158949
158950
158884
158668
158609
158635
158755
158966
159079
159095
159051
158964
158930
158864
158879
158702
158658
158716
158828
158987
159146
159180
159051
158964
158815
158727
158880
159071
159166
159205
159034
159029
158978
158850
158737
158785
158949
159010
159107
159272
159202
159041
159007
158953
158787
158671
158790
159015
159052
159065
159109
158974
158834
158806
158866
158834
158921
159032
159039
159119
159125
159086
158943
158882
158803
158720
158785
158941
158972
159125
159121
158995
158909
158797
158581
158575
158718
158875
158923
158990
159023
158897
158804
158793
158719
158698
158749
158896
159004
159000
158980
158839
158775
158761
158730
158628
158680
158804
158912
159062
159068
158970
158855
158777
158671
158665
158723
158697
158866
158899
158834
158775
158811
158801
158634
158566
158619
158754
158901
158978
158893
158840
158766
158657
158558
158470
158611
158710
158923
158990
158915
158846
158771
158620
158498
158496
158617
158764
158808
158880
158948
158871
158751
158721
158582
158380
158476
158607
158676
158826
158794
158843
158795
158664
158492
158435
158505
158601
158613
158693
158585
158612
158542
158546
158564
158408
158431
158500
158557
158715
158701
158649
158585
158443
158374
158339
158405
158492
158565
158527
158525
158532
158481
158447
158302
158318
158461
158526
158569
158657
158631
158536
158383
158270
158200
158228
158296
158460
158556
158773
158851
158742
158657
158600
158527
158454
158420
158585
158570
158691
158600
158493
158317
158190
157988
157875
157921
157946
157990
157981
158013
158189
158087
158034
157955
157850
157992
158173
158322
158364
158384
158414
158314
158348
158178
158062
158211
158284
158348
158356
158417
158412
158335
158276
158285
158156
158236
158311
158324
158433
158523
158530
158307
158240
158219
158170
158215
158307
158408
158558
158576
158557
158431
158403
158267
158211
158220
158357
158460
158519
158516
158539
158422
158313
158263
158182
158238
158389
158447
158561
158522
158566
158445
158291
158161
158109
158212
158357
158308
158383
158410
158574
158575
158486
158330
158205
158236
158392
158444
158535
158560
158509
158448
158483
158364
158251
158272
158447
158523
158654
158736
158713
158635
158502
158382
158269
158286
158410
158602
158618
158716
158734
158661
158615
158480
158322
158397
158515
158539
158725
158768
158776
158685
158637
158568
158351
158278
158528
158754
158845
158852
158793
158636
158539
158466
158356
158416
158603
158782
158853
158835
158806
158732
158627
158557
158460
158454
158581
158700
158796
158844
158802
158672
158655
158655
158476
158521
158713
158661
158743
158722
158804
158708
158694
158725
158571
158592
158774
158814
158887
158908
158944
158861
158728
158711
158682
158696
158797
158883
158879
159015
159049
159035
158971
158912
158792
158790
158916
159041
159095
159232
159211
159022
158970
158962
158880
158921
159109
159279
159211
159202
159314
159271
159107
159061
158947
158901
159087
159150
159226
159391
159449
159305
159158
159090
158934
159029
159075
159124
159230
159341
159423
159348
159203
159129
159011
158957
159125
159191
159201
159272
159369
159383
159306
159215
159119
159105
159183
159272
159360
159409
159460
159345
159225
159140
159027
159009
159170
159344
159442
159413
159381
159310
159240
159128
159122
159198
159294
159423
159384
159455
159498
159428
159281
159164
159039
159045
159138
159344
159493
159588
159656
159452
159336
159265
159166
159252
159312
159399
159476
159437
159470
159497
159381
159287
159193
159228
159356
159451
159519
159545
159615
159638
159557
159337
159236
159245
159276
159396
159465
159547
159634
159666
159590
159480
159348
159397
159503
159556
159599
159590
159627
159603
159556
159495
159256
159226
159363
159552
159630
159600
159695
159655
159620
159589
159469
159450
159621
159606
159663
159681
159741
159700
159525
159336
159424
159457
159541
159643
159719
159688
159697
159606
159474
159468
159426
159570
159616
159740
159760
159821
159896
159760
159643
159548
159311
159354
159507
159699
159690
159736
159831
159776
159628
159715
159590
159509
159482
159599
159641
159680
159796
159800
159638
159571
159422
159453
159448
159535
159663
159695
159759
159742
159580
159480
159404
159397
159540
159691
159601
159591
159698
159732
159616
159498
159332
159385
159440
159560
159695
159660
159834
159838
159612
159430
159295
159320
159485
159683
159811
159813
159813
159808
159692
159590
159351
159291
159429
159590
159685
159766
159868
159904
159768
159682
159517
159524
159535
159659
159771
159841
159874
159832
159704
159695
159508
159478
159593
159779
159789
159841
159934
159850
159715
159673
159495
159538
159563
159780
159921
159924
159998
159960
159835
159639
159480
159502
159550
159673
159692
159784
160022
160010
159757
159745
159614
159587
159612
159665
159794
159872
159896
159872
159676
159545
159486
159532
159629
159736
159805
159903
159964
159830
159729
159638
159576
159562
159506
159673
159751
159686
159770
159885
159808
159886
159818
159693
159704
159868
159959
159999
160137
160139
159919
159843
159686
159589
159634
159834
159840
159889
159841
159810
159510
159365
159131
159111
159048
159193
159322
159378
159445
159511
159464
159347
159265
159219
159314
159516
159692
159734
159763
159725
159617
159635
159615
159549
159631
159707
159681
159674
159867
159851
159768
159678
159538
159472
159574
159685
159762
159832
159930
159873
159727
159726
159571
159515
159570
159673
159740
159767
159827
159834
159698
159590
159566
159522
159522
159649
159746
159811
159941
159866
159753
159728
159554
159487
159554
159730
159801
159796
159862
159860
159732
159597
159397
159376
159459
159687
159816
159856
159965
159867
159735
159612
159506
159458
159496
159622
159801
159851
159908
159834
159748
159675
159548
159433
159419
159565
159797
159892
159928
159881
159762
159706
159589
159620
159624
159747
159729
159756
159845
159804
159785
159739
159754
159699
159667
159765
159847
159826
159977
159982
159839
159769
159629
159562
159669
159671
159734
159884
159881
159876
159797
159682
159522
159423
159567
159658
159842
159929
159933
159927
159792
159723
159605
159529
159498
159576
159794
159879
159942
159957
159776
159690
159637
159549
159515
159546
159589
159728
159854
159802
159756
159740
159576
159536
159500
159570
159746
159741
159731
159781
159629
159493
159523
159612
159633
159647
159725
159839
159944
159893
159739
159645
159497
159480
159406
159506
159653
159721
159893
159958
159831
159791
159699
159512
159494
159571
159657
159700
159811
159742
159590
159532
159543
159530
159605
159715
159780
159715
159847
159833
159759
159641
159472
159344
159345
159559
159656
159634
159803
159830
159746
159599
159503
159414
159401
159458
159526
159602
159632
159706
159649
159575
159430
159412
159458
159509
159605
159683
159704
159831
159772
159593
159500
159413
159414
159540
159624
159665
159734
159823
159768
159520
159421
159351
159373
159469
159554
159676
159809
159743
159706
159595
159509
159459
159392
159430
159600
159633
159803
159819
159689
159545
159389
159426
159478
159524
159531
159612
159780
159794
159752
159669
159540
159446
159365
159366
159526
159616
159842
159974
159768
159554
159428
159491
159358
159425
159595
159673
159845
159916
159817
159696
159495
159369
159355
159472
159659
159655
159847
159813
159776
159659
159587
159534
159518
159571
159605
159509
159677
159787
159861
159834
159691
159513
159414
159485
159621
159613
159714
159826
159807
159672
159567
159472
159393
159433
159652
159726
159738
159752
159665
159396
159323
159455
159527
159547
159590
159566
159690
159788
159691
159624
159509
159382
159213
159285
159444
159578
159791
159785
159700
159532
159446
159444
159394
159484
159561
159565
159629
159612
159622
159526
159468
159359
159264
159286
159480
159543
159646
159633
159590
159436
159292
159176
159197
159357
159530
159535
159705
159754
159700
159516
159399
159381
159303
159364
159506
159490
159615
159744
159748
159534
159418
159362
159314
159328
159478
159508
159642
159579
159609
159497
159381
159385
159292
159270
159405
159492
159702
159762
159691
159543
159419
159401
159352
159335
159446
159431
159526
159587
159566
159552
159600
159487
159405
159332
159427
159547
159654
159712
159670
159561
159440
159377
159266
159224
159454
159452
159710
159861
159744
159532
159446
159428
159328
159297
159477
159460
159569
159655
159633
159547
159477
159494
159338
159333
159530
159553
159653
159702
159594
159530
159507
159357
159355
159325
159428
159422
159525
159663
159716
159616
159372
159329
159278
159293
159402
159394
159515
159716
159770
159488
159351
159386
159369
159287
159439
159409
159463
159496
159520
159433
159481
159485
159443
159428
159498
159588
159796
159911
159914
159862
159705
159590
159551
159449
159519
159584
159653
159721
159602
159420
159221
159059
158956
158930
159019
159053
159127
159248
159288
159189
159026
159037
159068
159172
159297
159363
159523
159658
159654
159477
159337
159254
159140
159130
159323
159461
159502
159637
159695
159566
159372
159290
159155
159201
159420
159506
159543
159597
159590
159496
159351
159315
159281
159296
159374
159442
159516
159641
159642
159524
159364
159248
159265
159323
159492
159462
159584
159617
159570
159494
159397
159267
159168
159196
159371
159475
159589
159677
159558
159440
159313
159294
159167
159216
159440
159506
159568
159648
159594
159510
159414
159356
159322
159308
159414
159534
159473
159607
159592
159513
159410
159371
159395
159333
159321
159399
159488
159516
159625
159482
159457
159439
159359
159355
159494
159455
159561
159647
159682
159512
159356
159297
159208
159201
159269
159471
159603
159638
159644
159555
159375
159324
159135
159134
159217
159296
159401
159600
159710
159642
159418
159289
159246
159177
159233
159345
159467
159545
159615
159481
159281
159255
159162
159132
159158
159201
159393
159535
159599
159520
159369
159288
159158
159162
159252
159289
159327
159423
159508
159480
159335
159247
159046
159024
159176
159332
159486
159614
159641
159492
159357
159377
159300
159221
159238
159299
159387
159487
159504
159448
159360
159275
159339
159364
159375
159376
159463
159648
159698
159608
159410
159412
159388
159295
159314
159456
159495
159574
159562
159489
159306
159361
159311
159342
159413
159619
159690
159683
159623
159529
159412
159386
159300
159300
159278
159267
159364
159552
159642
159513
159370
159373
159269
159204
159266
159363
159459
159556
159560
159434
159334
159237
159181
159156
159186
159248
159370
159444
159418
159403
159188
159281
159242
159172
159213
159306
159374
159406
159473
159503
159234
159167
159097
159043
159132
159253
159384
159418
159461
159409
159249
159120
159042
159067
159192
159368
159402
159450
159536
159438
159278
159253
159152
159120
159113
159169
159324
159410
159556
159574
159369
159334
159213
159146
159132
159171
159286
159464
159548
159472
159289
159097
159031
159102
159162
159260
159443
159505
159543
159457
159234
159209
159117
159081
159079
159180
159261
159444
159539
159468
159301
159184
159063
159028
159071
159187
159276
159362
159426
159382
159377
159281
159092
159043
159028
159076
159156
159333
159330
159369
159211
159195
159098
159049
159094
159150
159230
159329
159391
159303
159093
159166
159079
158964
158997
159084
159220
159284
159283
159248
159121
159069
158947
158882
158880
158967
159046
159259
159332
159304
159126
159044
158957
158805
158885
159076
159244
159325
159282
159210
159002
158890
158832
158842
158969
159065
159211
159315
159245
159158
159100
159020
158913
158829
158873
159004
159141
159233
159281
159192
158982
158963
158904
158833
158855
158973
159131
159259
159325
159209
159062
159020
158961
158849
158767
158823
159007
159276
159304
159309
159097
159066
158974
158850
158871
158995
159000
159089
159247
159316
159128
159151
159025
158850
158892
158925
159024
159056
159242
159367
159144
159007
158897
158846
158845
158888
159003
159080
159172
159150
158993
158944
158842
158792
158883
158933
159001
159154
159224
159217
159031
158967
158860
158751
158768
158848
158985
159030
159148
159123
158976
158898
158925
158799
158810
159016
159090
159168
159148
159113
158953
158860
158809
158717
158724
158854
158903
158981
159022
158985
158936
158907
158844
158809
158747
158783
158873
158912
158987
159004
158876
158875
158772
158657
158707
158742
158810
158996
159073
159058
158913
158738
158740
158665
158656
158787
158859
158991
159075
159037
158907
158711
158594
158579
158605
158734
158850
158884
159011
159110
158972
158896
158859
158814
158863
159023
159175
159234
159329
159264
159171
159024
158878
158749
158718
158790
158903
158927
158902
158763
158599
158445
158371
158251
158221
158331
158400
158520
158727
158776
158707
158582
158507
158469
158513
158630
158746
158838
158930
158975
158828
158729
158636
158524
158503
158619
158786
158845
158860
158891
158751
158640
158627
158526
158423
158469
158717
158850
158965
158983
158840
158742
158660
158447
158407
158418
158588
158824
159036
159028
158821
158674
158631
158504
158448
158508
158742
158946
158982
158866
158786
158743
158625
158498
158447
158475
158682
158820
158958
158942
158813
158754
158670
158521
158487
158534
158661
158773
158873
158958
158797
158695
158632
158451
158413
158575
158661
158718
158828
158941
158892
158839
158700
158626
158539
158523
158695
158742
158774
158786
158746
158663
158733
158662
158640
158646
158785
158844
158933
158877
158712
158600
158663
158668
158692
158593
158723
158818
158903
158955
158870
158734
158659
158505
158508
158638
158733
158734
158830
158829
158785
158653
158581
158437
158454
158509
158638
158711
158788
158885
158821
158638
158499
158484
158457
158459
158568
158666
158820
158870
158810
158668
158554
158370
158336
158349
158535
158593
158695
158748
158657
158448
158459
158391
158361
158365
158547
158517
158627
158753
158600
158463
158352
158361
158377
158418
158515
158501
158612
158704
158554
158473
158460
158447
158389
158280
158449
158507
158649
158714
158734
158627
158523
158422
158351
158374
158444
158508
158610
158726
158617
158517
158457
158401
158307
158283
158414
158491
158558
158586
158568
158453
158443
158383
158324
158271
158365
158414
158492
158552
158602
158561
158384
158273
158212
158245
158445
158500
158541
158550
158467
158412
158398
158256
158244
158262
158364
158425
158497
158563
158538
158454
158461
158442
158360
158285
158438
158507
158603
158575
158470
158403
158445
158271
158142
158132
158338
158552
158590
158612
158479
158420
158297
158300
158290
158306
158351
158376
158486
158614
158613
158506
158378
158253
158190
158227
158394
158435
158531
158554
158545
158445
158363
158331
158230
158075
158277
158353
158373
158468
158502
158466
158431
158302
158181
158147
158326
158400
158524
158599
158511
158332
158206
158033
158025
158171
158379
158463
158491
158615
158619
158411
158326
158174
158058
158071
158206
158326
158472
158536
158529
158355
158323
158199
158122
158094
158264
158384
158415
158423
158416
158301
158241
158113
158025
158048
158162
158229
158312
158422
158429
158320
158278
158118
157953
157915
158098
158189
158362
158347
158307
158296
158246
158096
158005
157981
158088
158201
158325
158233
158290
158229
158093
157958
157879
157968
158162
158167
158214
158244
158239
158210
158095
157997
157960
157943
158092
158148
158200
158266
158202
158057
158024
158111
158077
157915
158100
158195
158237
158292
158275
158216
158078
158050
158004
157887
158071
158130
158216
158284
158319
158224
158072
158026
157945
157864
158000
158120
158165
158222
158294
158305
158172
157999
157887
157858
157996
158164
158315
158435
158361
158229
158069
158024
157980
157904
157986
158071
158176
158314
158342
158201
158124
158039
157963
157962
158032
158165
158255
158275
158271
158157
158121
158057
157962
157984
157980
158043
158148
158225
158341
158310
158172
158088
158000
158022
158032
158047
158133
158199
158215
158114
158039
158053
157989
157931
158004
158116
158132
158166
158152
158051
158003
158038
158002
157912
158009
158104
158126
158116
158192
158150
158020
157984
157843
157807
157871
158025
158087
158086
158101
158130
158020
157941
157848
157751
157922
158053
158162
158300
158226
158200
158176
158094
157921
157940
158134
158376
158595
158541
158400
158321
158170
157990
157839
157778
157721
157684
157743
157861
157939
157723
157625
157468
157279
157337
157583
157824
157921
158018
158016
157990
157931
157902
157783
157690
157806
157972
158066
158101
158077
158079
157919
157864
157777
157730
157817
158031
158122
158133
158050
158016
157938
157870
157694
157618
157699
157860
157950
158075
158062
158012
157897
157857
157783
157769
157938
157985
158051
158105
158038
157945
157821
157824
157766
157802
157810
157868
157979
158034
158071
158062
157942
157832
157699
157642
157765
157927
157939
158195
158174
158066
157912
157794
157703
157712
157834
157971
157931
157980
158028
158060
157941
157882
157797
157724
157810
157921
158051
158084
158060
157921
157909
157883
157796
157707
157766
157886
157901
158111
158106
158123
158066
157864
157883
157833
157778
157921
158042
158152
158070
158008
157926
157748
157689
157677
157742
157936
158053
158073
158034
157975
157870
157804
157709
157664
157716
157860
157878
157916
157999
158021
157919
157732
157560
157562
157707
157810
157803
157828
157841
157767
157716
157663
157668
157752
157746
157758
157822
157871
157864
157909
157775
157687
157587
157469
157587
157746
157832
157925
157976
158014
157931
157814
157665
157487
157568
157756
157791
157856
157863
157859
157765
157863
157726
157589
157635
157686
157757
157861
157787
157790
157641
157628
157660
157673
157662
157742
157819
157852
157955
157905
157775
157663
157580
157601
157706
157654
157757
157841
157896
157878
157743
157655
157593
157546
157532
157528
157525
157713
157835
157851
157753
157635
157538
157518
157546
157619
157658
157796
157820
157771
157620
157532
157462
157341
157473
157727
157811
157877
157805
157772
157630
157656
157489
157375
157457
157538
157604
157590
157786
157851
157765
157613
157475
157377
157406
157478
157608
157767
157721
157729
157547
157511
157466
157401
157506
157658
157724
157767
157737
157707
157580
157518
157439
157326
157412
157569
157539
157576
157720
157836
157583
157486
157457
157343
157404
157541
157596
157691
157662
157619
157518
157421
157320
157233
157301
157532
157727
157840
157695
157664
157519
157460
157288
157277
157327
157429
157519
157659
157617
157675
157625
157465
157338
157266
157179
157337
157436
157516
157556
157563
157501
157470
157372
157238
157285
157337
157429
157561
157690
157730
157569
157416
157261
157155
157268
157447
157519
157613
157607
157546
157491
157466
157384
157256
157374
157542
157478
157437
157645
157601
157467
157329
157199
157171
157216
157299
157354
157381
157389
157550
157485
157407
157341
157210
157217
157291
157379
157518
157574
157562
157367
157238
157192
157121
157232
157409
157390
157439
157463
157488
157398
157314
157062
156976
157071
157254
157412
157497
157510
157502
157382
157292
157161
157014
157104
157255
157336
157325
157416
157532
157350
157234
157227
157188
157182
157217
157279
157360
157409
157379
157282
157201
157123
156990
156953
157140
157336
157434
157433
157357
157319
157270
157231
157109
157109
157207
157267
157334
157338
157378
157287
157275
157180
157161
157169
157255
157284
157294
157328
157515
157491
157291
157184
157099
157030
157071
157194
157367
157402
157340
157365
157300
157165
157056
157135
157250
157311
157276
157311
157382
157407
157225
157089
157010
156950
157048
157298
157412
157450
157555
157439
157288
157097
156969
157065
157069
157275
157373
157370
157363
157290
157205
157166
157147
157201
157139
157275
157391
157461
157447
157378
157261
157122
156977
157055
157152
157293
157263
157379
157509
157432
157250
157161
157068
157156
157277
157302
157353
157390
157467
157482
157346
157227
157145
157218
157338
157506
157596
157659
157785
157726
157432
157301
157199
157191
157150
157197
157299
157214
157127
156936
156682
156777
156695
156671
156713
156912
156996
156996
157094
157054
156982
156945
156900
156966
157057
157147
157238
157282
157326
157262
157151
157028
156906
156973
157084
157136
157368
157412
157309
157212
157075
157035
156916
156916
156894
156944
157038
157181
157430
157512
157206
157111
156999
157007
157029
157119
157156
157208
157228
157164
156978
156974
156911
156990
157113
157132
157208
157310
157291
157215
157038
156989
156909
156944
156955
156991
157062
157146
157235
157205
157122
157073
156897
156941
157012
157067
157060
157105
157317
157336
157138
157037
156869
156825
156907
157019
157094
157178
157270
157143
157071
156944
156834
156820
156861
157020
157078
157220
157240
157147
157012
156973
156797
156762
156871
157042
157148
157204
157256
157188
157109
157091
156905
156841
156852
156892
157036
157253
157340
157240
157091
157019
156872
156838
156863
157014
157116
157147
157224
157081
157003
156994
156839
156804
156871
157008
156944
156990
157152
157130
157017
156961
156785
156763
156780
156830
156954
156997
156991
156954
156909
156881
156845
156776
156755
156907
156974
157041
157098
157013
156791
156765
156581
156673
156751
156885
156982
157006
157120
157081
156885
156739
156617
156642
156725
156869
156994
157069
157078
157056
156964
156828
156628
156592
156734
156819
156864
156927
156952
156910
156847
156745
156634
156696
156674
156621
156741
156820
156885
156888
156856
156847
156713
156633
156697
156805
156889
156896
156918
156832
156775
156719
156577
156542
156542
156712
156710
156746
156849
156871
156810
156734
156568
156542
156499
156540
156575
156713
156843
156899
156784
156733
156543
156498
156525
156646
156781
156733
156718
156718
156673
156677
156574
156549
156595
156685
156771
156783
156860
156859
156666
156518
156509
156486
156511
156725
156715
156746
156828
156811
156719
156691
156644
156526
156457
156521
156606
156606
156706
156821
156657
156525
156378
156330
156381
156475
156527
156603
156768
156784
156605
156454
156292
156224
156306
156467
156553
156553
156587
156565
156526
156427
156313
156267
156326
156444
156400
156397
156475
156455
156418
156417
156426
156355
156311
156370
156412
156459
156575
156544
156468
156314
156191
156224
156264
156373
156386
156476
156568
156567
156442
156364
156194
156130
156210
156288
156393
156392
156460
156483
156331
156315
156233
156285
156244
156365
156494
156528
156547
156557
156416
156320
156188
156172
156212
156293
156417
156461
156564
156597
156479
156312
156149
156106
156176
156240
156264
156271
156420
156487
156302
156302
156201
156121
156100
156285
156384
156378
156406
156446
156367
156247
156199
156121
156118
156169
156244
156291
156457
156496
156378
156312
156204
156101
156074
156115
156240
156322
156459
156427
156293
156120
156022
156050
156132
156253
156379
156317
156378
156392
156331
156234
156133
156090
156030
156102
156281
156320
156432
156469
156269
156138
156021
156047
156109
156265
156439
156390
156476
156515
156348
156287
156137
156002
156032
156085
156260
156386
156455
156469
156408
156306
156184
156157
156153
156172
156358
156375
156404
156414
156360
156303
156184
156091
156021
156137
156269
156373
156437
156483
156438
156307
156172
156115
156101
156175
156195
156210
156335
156493
156472
156357
156292
156207
156130
156149
156248
156335
156511
156526
156450
156321
156213
156147
156092
156145
156298
156363
156583
156617
156429
156298
156122
156083
156108
156194
156242
156318
156503
156507
156529
156397
156248
156182
156172
156310
156450
156540
156620
156638
156542
156382
156314
156141
156052
156044
156134
156061
156030
155966
155832
155763
155577
155492
155553
155643
155821
155914
156011
156142
156030
155871
155704
155683
155760
155883
156134
156266
156298
156283
156167
156014
155917
155855
155908
155913
155969
155944
156104
156208
156133
156170
155921
155876
155905
155895
156030
156054
156188
156176
156146
156061
155926
155840
155789
155978
156169
156180
156240
156237
156166
156044
155972
155916
155953
156017
156137
156083
156176
156253
156208
156045
155965
155869
155755
155880
156069
156170
156271
156291
156162
155993
155917
155853
155830
155729
155897
156013
156239
156332
156259
156123
156002
155872
155925
156025
156171
156074
156186
156221
156145
156059
156013
155937
155853
155909
155994
156042
156204
156305
156236
156064
155937
155817
155779
155851
155968
156072
156238
156270
156221
156042
155968
155824
155790
155922
155988
156011
156145
156209
156052
156007
155956
155849
155728
155817
155844
155897
156089
156099
156002
155938
155862
155737
155725
155721
155816
155875
155927
155998
156011
155870
155802
155702
155648
155588
155708
155821
155997
156096
156012
155923
155747
155579
155518
155532
155705
155813
155883
156002
155979
155800
155716
155684
155670
155647
155801
155749
155824
155967
155891
155676
155683
155645
155566
155514
155716
155757
155839
155828
155782
155679
155645
155579
155516
155613
155757
155719
155810
155909
155886
155779
155634
155507
155370
155417
155553
155598
155739
155879
156026
155800
155743
155615
155520
155552
155680
155622
155629
155789
155712
155581
155486
155511
155545
155457
155626
155606
155701
155827
155855
155674
155541
155491
155449
155460
155549
155484
155453
155651
155749
155720
155686
155581
155453
155457
155485
155583
155728
155759
155810
155703
155567
155480
155390
155350
155473
155437
155624
155785
155843
155749
155532
155422
155381
155336
155439
155468
155624
155758
155728
155647
155529
155428
155377
155433
155547
155608
155591
155570
155593
155576
155375
155414
155452
155459
155442
155475
155615
155730
155576
155504
155419
155392
155350
155290
155473
155495
155580
155653
155642
155554
155476
155421
155296
155228
155433
155573
155628
155641
155587
155520
155384
155324
155299
155345
155415
155444
155461
155566
155542
155508
155390
155400
155273
155239
155316
155394
155536
155593
155626
155510
155406
155235
155199
155302
155400
155392
155486
155550
155600
155499
155346
155320
155199
155220
155331
155326
155460
155527
155470
155374
155195
155250
155268
155269
155331
155344
155472
155579
155600
155545
155376
155271
155182
155188
155275
155220
155361
155464
155473
155405
155215
155148
155123
155077
155164
155280
155419
155502
155548
155559
155352
155226
155172
155166
155226
155288
155397
155509
155439
155284
155237
155245
155173
155100
155145
155302
155338
155397
155480
155381
155260
155125
155087
155169
155170
155151
155295
155292
155370
155425
155264
155197
155081
155039
155109
155152
155227
155404
155444
155391
155300
155203
155101
155032
155077
155135
155275
155380
155370
155284
155135
155070
154966
155038
155157
155200
155335
155389
155317
155181
155025
155014
154905
154977
155161
155149
155227
155286
155300
155284
155087
154982
154876
154986
155134
155215
155227
155255
155315
155341
155129
155030
154967
154902
154987
155028
155086
155184
155260
155141
155017
154939
154822
154880
155121
155316
155364
155337
155449
155345
155159
155124
155136
155159
155180
155200
155388
155474
155482
155403
155256
155101
154970
154737
154766
154732
154754
154811
154822
154728
154628
154581
154578
154556
154563
154608
154727
154849
154985
155086
154959
154887
154947
154950
154948
154988
155071
155128
155143
155075
154871
154824
154744
154747
154803
154998
155063
155096
155092
155088
154949
154898
154814
154789
154814
154911
155020
155133
155121
155021
154894
154934
154852
154813
154822
154972
155189
155287
155214
155105
154985
154892
154804
154788
154848
154936
155055
155108
155090
155074
154931
154914
154813
154729
154810
154908
155066
155278
155284
155105
154923
154895
154881
154872
154831
155003
155089
155158
155237
155174
154981
155011
154955
154870
154912
154998
155055
155232
155259
155195
155048
154953
154813
154871
155038
155071
155100
155210
155319
155317
155159
155057
154967
154972
155052
155085
155137
155210
155205
155229
155121
155105
154993
154922
154919
154973
155109
155321
155269
155253
155097
155062
154931
154984
155027
155042
155074
155234
155243
155217
155112
155056
154937
154840
154885
154931
155107
155297
155297
155233
154960
154933
154866
154898
154914
154972
155008
155170
155283
155250
155017
154953
154791
154799
154898
155034
155092
155173
155308
155287
155186
155241
155036
154980
155013
155065
155197
155262
155245
155226
155114
155066
155096
155077
155092
155114
155178
155251
155373
155320
155152
155098
154982
154968
155118
155260
155383
155398
155412
155324
155147
155139
155078
155040
155042
155164
155334
155456
155537
155442
155225
155167
155238
155161
155065
155131
155321
155473
155493
155438
155337
155183
155094
155178
155183
155219
155289
155364
155408
155455
155332
155243
155118
155063
155054
155100
155159
155319
155401
155452
155358
155309
155279
155174
155109
155216
155311
155478
155585
155521
155380
155300
155201
155155
155170
155264
155384
155559
155557
155524
155374
155311
155240
155219
155196
155383
155489
155560
155663
155528
155402
155287
155214
155175
155266
155378
155503
155506
155578
155642
155515
155460
155346
155285
155256
155321
155429
155477
155584
155666
155599
155484
155419
155353
155380
155376
155420
155572
155680
155629
155479
155349
155441
155432
155370
155448
155593
155640
155722
155779
155631
155499
155377
155339
155282
155465
155560
155614
155775
155797
155654
155545
155485
155348
155341
155642
155674
155795
155831
155816
155672
155666
155603
155525
155506
155570
155621
155772
155927
155934
155739
155633
155606
155604
155585
155569
155720
155799
155851
155836
155679
155661
155598
155555
155501
155554
155668
155837
155962
155933
155803
155670
155586
155541
155536
155578
155739
155836
155943
155988
155947
155860
155765
155617
155465
155484
155676
155935
156076
156075
155988
155841
155715
155601
155648
155750
155869
156009
156038
156062
155983
155842
155853
155806
155817
155944
156020
156085
156148
156155
156013
156062
155953
155855
155870
155999
156041
156152
156300
156315
156175
156104
156023
155864
155815
155891
156208
156413
156525
156471
156302
156233
156113
156052
156048
156118
156343
156522
156526
156535
156433
156392
156249
156190
156165
156225
156349
156463
156621
156509
156330
156296
156271
156233
156189
156264
156407
156466
156529
156574
156428
156378
156345
156352
156257
156306
156515
156580
156649
156686
156549
156483
156404
156302
156286
156378
156410
156514
156718
156720
156597
156545
156524
156473
156472
156480
156687
156753
156841
156967
156963
156845
156755
156580
156540
156639
156887
156954
157034
156970
156788
156641
156363
156189
156165
156220
156293
156440
156549
156502
156462
156504
156489
156397
156428
156460
156638
156746
156943
157012
156917
156862
156761
156615
156556
156563
156736
156954
157243
157234
157089
156987
156910
156801
156770
156805
156955
157044
157122
157162
156930
156870
156939
156945
157028
157152
157174
157190
157251
157244
157153
157024
156976
156871
156871
157077
157223
157288
157389
157427
157211
157093
157136
157049
157043
157093
157279
157309
157405
157467
157206
157155
157042
157019
157021
156923
156528
156795
157027
157155
157205
157169
157093
157074
156974
157027
157229
157300
157450
157543
157512
157331
157322
157159
156953
156988
157247
157416
157685
157760
157629
157552
157439
157367
157301
157336
157465
157530
157589
157571
157602
157527
157570
157514
157405
157436
157528
157600
157740
157774
157666
157604
157524
157554
157492
157470
157664
157693
157826
157886
157751
157594
157514
157515
157454
157478
157703
157763
157830
157835
157778
157609
157551
157436
157390
157509
157675
157718
157863
157907
157792
157659
157560
157484
157418
157376
157574
157779
157948
157926
157832
157736
157691
157626
157534
157501
157626
157736
157865
157971
158005
157804
157738
157640
157593
157503
157645
157821
157937
157986
157859
157789
157746
157684
157622
157570
157691
157817
157851
157926
157832
157858
157876
157756
157680
157680
157817
157883
157917
157966
157925
157877
157777
157674
157704
157783
157940
157946
157948
158025
158004
157894
157850
157720
157587
157560
157753
157820
157721
157911
157895
157791
157795
157581
157569
157555
157650
157760
157889
158104
158180
157989
157807
157712
157702
157659
157831
157857
157911
157893
157890
157906
157859
157756
157645
157622
157848
157958
158078
158125
158111
158013
157865
157784
157718
157715
157878
157908
158006
158071
158139
157979
157959
157783
157765
157814
157899
158003
158075
158100
158085
157963
157823
157727
157658
157706
157895
157960
158031
158131
158063
157936
157805
157716
157717
157710
157818
157985
158032
158096
158000
157936
157841
157856
157768
157612
157778
157934
158054
158089
158064
157974
157814
157736
157753
157707
157821
157882
157968
158031
158009
157955
157857
157794
157761
157632
157791
157881
157995
158104
158084
157997
157901
157773
157720
157705
157815
157915
157999
158083
158141
158026
157935
157868
157797
157623
157837
157942
157974
158028
158055
158021
157884
157820
157667
157534
157758
157935
158193
158217
158124
158035
158030
157886
157744
157660
157738
157871
157918
158071
158093
157966
157917
157832
157721
157716
157945
158039
158069
157994
158013
157950
157844
157768
157721
157647
157768
157926
157972
158110
158115
157977
157886
157890
157765
157618
157736
157862
158020
158147
158109
158031
157904
157810
157710
157652
157828
157975
158052
158169
158022
157955
157935
157857
157752
157668
157748
157877
157957
158020
158030
157974
157901
157764
157715
157680
157757
157884
157921
157955
157959
157945
157819
157730
157686
157695
157797
157951
157970
158038
158000
157953
157793
157653
157542
157513
157710
157716
157951
158148
158110
158005
157877
157792
157771
157660
157841
157945
158054
158171
158206
158180
158132
158007
157886
157821
157967
158073
158136
158192
158085
157900
157728
157551
157412
157377
157485
157569
157581
157649
157596
157555
157494
157458
157455
157487
157567
157865
157940
157987
158058
158010
157864
157752
157576
157518
157658
157845
158071
158109
158075
158061
157901
157820
157710
157626
157744
157883
157936
158007
157977
157950
157885
157798
157588
157695
157860
157824
157889
158040
158006
157899
157840
157835
157723
157714
157785
157861
157918
158067
158026
157946
157866
157759
157674
157694
157904
158016
158004
158173
158210
158078
157938
157819
157705
157650
157768
157893
158021
158110
158061
158034
157973
157851
157746
157709
157820
157976
157969
157991
158105
158002
157845
157759
157704
157649
157742
157847
157930
158017
158022
158165
158085
157914
157781
157727
157795
157977
158143
158232
158159
158154
158025
157995
157825
157815
157892
158025
158147
158146
158155
158099
157953
157906
157885
157788
157826
158004
158057
158164
158218
158192
158080
157965
157780
157711
157821
157942
158042
158104
158121
158089
157950
157910
157774
157592
157730
157888
158005
158123
158123
158039
157923
157886
157810
157772
157746
157950
157929
157962
158123
158135
157997
157883
157741
157626
157684
157891
157931
157998
158051
158041
157917
157737
157660
157583
157666
157808
157823
157890
157900
157941
157869
157898
157786
157712
157729
157830
157982
157935
157813
157797
157680
157664
157610
157589
157749
157883
157814
157881
157928
157890
157790
157681
157561
157511
157569
157723
157730
157881
157989
157929
157849
157738
157592
157550
157604
157686
157838
157820
157789
157887
157810
157773
157628
157484
157481
157737
157823
157864
157894
157846
157683
157628
157502
157420
157486
157557
157667
157889
157926
157897
157815
157645
157629
157532
157518
157638
157729
157765
157793
157832
157709
157625
157462
157408
157489
157634
157784
157904
157932
157855
157818
157680
157477
157354
157413
157560
157694
157836
157859
157850
157725
157629
157507
157399
157410
157523
157503
157635
157753
157800
157633
157493
157441
157375
157334
157392
157532
157707
157825
157857
157658
157537
157434
157346
157384
157579
157600
157582
157695
157749
157570
157543
157415
157282
157278
157412
157462
157598
157628
157631
157569
157467
157324
157232
157273
157456
157562
157631
157739
157706
157495
157366
157248
157214
157395
157471
157515
157649
157741
157763
157537
157401
157313
157205
157229
157377
157414
157474
157505
157575
157577
157465
157324
157192
157197
157354
157379
157429
157529
157692
157540
157410
157291
157149
157168
157289
157415
157483
157530
157523
157373
157317
157238
157093
157090
157171
157201
157310
157430
157525
157395
157312
157204
157098
157169
157318
157364
157447
157458
157465
157262
157171
157093
157064
157069
157173
157368
157453
157460
157464
157378
157283
157204
157081
157070
157151
157206
157320
157417
157482
157387
157284
157157
157095
157128
157277
157438
157406
157425
157457
157414
157398
157265
157121
157094
157243
157318
157382
157423
157420
157276
157181
157128
156970
157066
157265
157399
157373
157321
157384
157420
157218
157057
156990
157041
157169
157269
157337
157347
157382
157308
157202
157217
157060
157044
157210
157302
157308
157364
157404
157338
157189
157093
157000
157026
157072
157136
157198
157250
157329
157339
157292
157193
157115
157157
157234
157382
157474
157497
157583
157564
157416
157327
157227
157291
157361
157504
157571
157514
157497
157379
157205
157120
156831
156604
156708
156852
156915
157026
157052
156943
156875
156894
156798
156362
156412
156780
156984
157099
157157
157114
157162
157075
157023
157115
157205
157197
157247
157266
157300
157265
157116
157047
156960
156994
157118
157214
157304
157316
157256
157235
157221
157192
157044
156948
157031
157140
157260
157292
157318
157228
157043
157111
157154
157056
157023
157176
157286
157349
157437
157374
157169
157070
157017
157021
157050
157161
157253
157385
157383
157343
157208
157126
156960
157002
157086
157090
157163
157270
157328
157235
157153
157101
157011
157018
157062
157085
157150
157186
157230
157234
157193
157066
156969
156924
157001
157118
157191
157267
157448
157405
157292
157138
156996
157058
157145
157264
157287
157373
157489
157391
157281
157184
157064
157034
157032
157216
157341
157502
157518
157402
157295
157186
157033
157068
157139
157215
157300
157362
157429
157458
157242
157189
156983
156956
157064
157136
157133
157220
157342
157460
157293
157188
157122
156954
156971
157092
157187
157374
157432
157364
157206
157133
156926
156911
157026
157181
157201
157263
157410
157447
157270
157142
157090
156977
156999
157171
157228
157278
157274
157203
157110
156990
156981
157085
157146
157317
157315
157298
157318
157283
157163
157079
157012
156992
156992
157122
157161
157169
157265
157226
157127
157196
157084
156986
157045
157139
157171
157223
157294
157282
157176
157094
157035
157038
157101
157208
157190
157231
157286
157308
157245
157116
156905
156915
156884
156978
157036
157186
157386
157377
157243
157072
156921
156966
156976
157060
157071
157144
157248
157270
157064
157099
157060
156991
156936
156982
157049
157217
157345
157308
157187
157215
157105
156942
156917
157099
157222
157313
157399
157289
157131
157118
157035
156959
156935
156928
157153
157453
157564
157499
157300
157202
157077
157000
157072
157190
157183
157232
157331
157326
157212
157179
157091
157004
157026
157097
157301
157366
157356
157348
157210
157173
156982
156955
157042
157104
157107
157202
157382
157329
157254
157148
156944
156904
156897
157042
157121
157233
157364
157358
157280
157183
156995
156909
156957
157035
157045
157111
157222
157235
157079
156921
156854
156899
157006
157150
157227
157096
157313
157442
157271
157051
156934
156863
156892
157032
157085
157205
157278
157243
157076
157111
157057
156956
156865
156992
157131
157199
157280
157305
157239
157148
156929
156931
156967
156982
157126
157256
157431
157368
157213
157170
156938
156804
156885
157027
157157
157214
157189
157346
157282
157193
157080
156952
156910
156994
157119
157167
157316
157364
157174
157082
156961
156986
157081
157118
157133
157237
157328
157311
157205
157099
156979
156890
156901
156970
157105
157053
157260
157322
157212
157217
157035
156889
156862
156972
157073
157107
157174
157250
157180
157161
157070
157033
157000
157062
157113
157148
157191
157180
157134
157105
157021
156962
156927
157045
157171
157146
157287
157384
157306
157173
157062
156993
157000
156872
156997
157189
157473
157525
157346
157218
156847
156275
156275
156200
156216
156326
156525
156512
156441
156463
156359
156364
156372
156479
156648
156858
157039
157103
157083
157004
156900
156823
156791
156947
157109
157210
157313
157317
157197
157081
157021
156858
156888
156975
157059
157138
157013
156896
156709
156542
156490
156568
156627
156774
156976
157040
157179
157180
156989
156876
156794
156842
156866
156898
157051
157093
157012
156744
156543
156392
156248
156346
156425
156546
156746
156818
156845
156916
156834
156749
156735
156764
156852
157081
157286
157280
157422
157438
157257
157128
157157
157123
157115
157069
157089
157045
157082
156979
156767
156625
156542
156507
156473
156576
156673
156767
157021
157077
157027
156959
156849
156811
156755
156877
157037
157046
157078
157138
157122
157031
156993
156873
156826
156965
156984
156999
157103
157163
157136
157069
157024
157031
156890
156887
156992
157062
157165
157260
157247
157124
156961
156899
156851
156923
157097
157163
157183
157236
157268
157140
156933
156887
156912
156978
157079
157051
157200
157300
157316
157244
157115
156996
156969
156931
157047
157098
157280
157399
157300
157243
157029
156914
156876
157008
157004
157031
157197
157307
157299
157189
157105
156953
156928
157035
157070
156979
157090
157274
157261
157225
157184
157044
157028
157027
157118
157111
157153
157242
157349
157155
157103
157081
156984
157092
157304
157248
157302
157290
157210
157064
156969
156950
156961
156879
157073
157180
157293
157364
157347
157233
157093
156926
156874
156938
157050
157139
157242
157257
157163
157008
156884
156892
156796
156749
156807
156782
156916
157081
157095
156995
156795
156675
156725
156742
156730
156770
156938
157090
157120
156999
156969
156835
156808
156882
156978
156974
157081
157119
157022
157012
156985
156940
156883
156810
156970
157086
157216
157319
157197
157021
156944
156893
156818
156804
156999
157074
157260
157271
157174
157072
156946
156877
156841
156898
157023
157035
157085
157185
157154
157052
156945
156912
156882
156935
157053
157033
157131
157189
157134
157031
156880
156833
156856
156857
156917
156950
157029
157026
157028
156931
156837
156900
156776
156769
156850
156884
157009
157212
157227
157132
157043
156813
156705
156668
156797
156928
157012
157006
157031
156991
156862
156762
156704
156729
156760
156864
157002
157042
157050
156926
156871
156910
156754
156761
156881
156895
157011
157047
157008
156896
156906
156890
156717
156763
156914
156970
156959
157022
156989
156856
156749
156745
156765
156731
156912
156986
157016
157037
157005
156890
156842
156807
156772
156751
156874
156878
156935
156987
157014
156910
156817
156758
156670
156722
156885
156962
157032
157032
156949
156871
156813
156738
156653
156751
156942
156989
156957
157021
157022
156936
156872
156768
156716
156722
156814
156883
156995
157053
157076
156954
156870
156881
156795
156747
156831
156869
156965
157082
157130
157026
156832
156781
156762
156746
156828
156913
157016
157134
157138
156961
156833
156794
156757
156791
156908
156963
157101
157174
157093
156987
156858
156804
156728
156699
156777
156857
157066
157200
157155
157031
156845
156720
156620
156631
156815
156905
156995
157052
157038
156969
156812
156701
156611
156597
156772
156848
156952
157054
157112
156901
156765
156693
156587
156487
156615
156683
156777
156978
157054
156999
156900
156787
156626
156602
156725
156845
156879
156898
156994
156883
156756
156648
156618
156591
156686
156714
156823
156897
156848
156851
156685
156592
156510
156465
156658
156768
156845
156879
156869
156826
156654
156616
156545
156571
156681
156718
156807
156849
156934
156880
156649
156512
156527
156575
156688
156675
156713
156744
156754
156698
156606
156608
156506
156455
156504
156542
156707
156837
156902
156842
156637
156554
156526
156412
156452
156563
156642
156711
156658
156594
156566
156604
156540
156547
156562
156697
156718
156739
156511
155924
155780
155935
156098
156139
156331
156410
156249
156258
156346
156522
156543
156411
156342
156324
156231
156422
156488
156449
156669
156819
156779
156760
156657
156574
156573
156587
156742
156726
156664
156611
156436
156240
156050
156017
155996
156153
156239
156312
156330
156323
156244
156257
156210
156240
156339
156419
156518
156693
156741
156747
156494
156406
156327
156295
156453
156513
156534
156580
156642
156629
156615
156495
156338
156347
156474
156570
156581
156720
156760
156690
156561
156507
156388
156434
156487
156579
156685
156715
156706
156633
156441
156435
156541
156526
156598
156564
156630
156734
156736
156698
156610
156516
156367
156292
156429
156542
156623
156757
156804
156733
156541
156606
156514
156440
156504
156621
156641
156747
156654
156632
156493
156467
156429
156405
156536
156620
156647
156818
156825
156699
156581
156552
156427
156371
156437
156532
156710
156857
156802
156608
156240
156093
155977
155929
155984
156111
156217
156428
156445
156349
156225
156182
156116
156295
156477
156486
156549
156657
156801
156778
156715
156722
156541
156470
156460
156564
156723
156805
156776
156767
156588
156347
156362
156315
156339
156391
156549
156686
156686
156588
156409
156344
156295
156147
156140
156228
156336
156565
156578
156473
156330
156284
156285
156203
156243
156384
156454
156449
156440
156370
156246
156354
156368
156304
156266
156346
156460
156553
156667
156617
156382
156272
156291
156293
156292
156395
156494
156438
156457
156442
156296
156354
156397
156327
156291
156400
156496
156571
156672
156677
156490
156376
156301
156249
156194
156194
156403
156499
156590
156648
156535
156666
156536
156450
156480
156534
156636
156716
156781
156804
156696
156580
156558
156613
156517
156531
156687
156705
156722
156792
156654
156600
156510
156393
156437
156589
156676
156741
156789
156750
156572
156573
156467
156427
156480
156525
156592
156664
156739
156797
156509
156464
156522
156529
156506
156681
156776
156790
156902
156858
156735
156670
156514
156430
156494
156585
156656
156783
156835
156793
156612
156536
156509
156472
156394
156476
156579
156776
156901
156854
156591
156623
156500
156328
156315
156448
156620
156777
156887
156827
156635
156564
156524
156436
156411
156493
156570
156615
156676
156687
156606
156532
156523
156409
156352
156424
156530
156627
156724
156784
156628
156482
156430
156354
156374
156405
156423
156577
156667
156656
156530
156528
156484
156382
156330
156332
156467
156666
156714
156658
156474
156451
156494
156444
156493
156578
156635
156624
156747
156817
156655
156597
156536
156467
156421
156509
156618
156664
156807
156568
156098
156096
155949
155998
156191
156394
156633
156746
156725
156718
156590
156561
156483
156355
156307
156392
156607
156689
156829
156830
156772
156547
156089
155903
156145
156289
156455
156571
156778
156864
156622
156486
156509
156500
156414
156096
156176
156330
156544
156504
156254
156203
156109
156104
156136
156235
156405
156462
156588
156611
156581
156648
156510
156463
156439
156472
156658
156780
156868
156843
156742
156635
156541
156427
156376
156430
156622
156689
156722
156699
156626
156538
156471
156414
156406
156391
156482
156556
156708
156826
156703
156532
156525
156481
156479
156491
156532
156631
156759
156779
156653
156514
156356
156325
156396
156439
156552
156637
156691
156660
156575
156574
156493
156416
156446
156415
156520
156718
156906
156894
156681
156550
156404
156344
156325
156401
156557
156652
156753
156791
156660
156591
156536
156446
156431
156495
156632
156662
156723
156829
156708
156500
156394
156326
156352
156425
156536
156568
156643
156669
156629
156602
156536
156401
156330
156368
156555
156544
156578
156550
156506
156460
156403
156334
156266
156353
156507
156538
156627
156589
156494
156493
156477
156460
156378
156236
156390
156457
156611
156518
156311
156194
156139
156011
155914
155880
156078
156118
156263
156314
156246
156198
156185
156143
156131
156172
156463
156539
156678
156737
156584
156474
156406
156227
156198
156084
156038
156002
156036
156125
156145
156011
155890
155805
155758
155765
155952
156095
156176
156196
156112
156024
156102
156033
156148
156145
156227
156248
156371
156382
156328
156239
156136
155993
156012
156136
156287
156375
156447
156445
156326
156244
156220
156117
156216
156285
156382
156346
156404
156481
156372
156316
156256
156111
156069
156073
156261
156482
156552
156585
156495
156382
156323
156208
156198
156128
156227
156353
156418
156617
156668
156494
156296
156189
156118
156236
156392
156461
156513
156581
156574
156440
156346
156226
156281
156244
156271
156372
156603
156625
156507
156417
156373
156230
156194
156199
156380
156535
156553
156549
156389
156398
156442
156355
156324
156314
156496
156544
156629
156655
156575
156487
156421
156297
156282
156258
156434
156617
156657
156624
156595
156530
156400
156283
156240
156250
156399
156493
156603
156594
156576
156450
156300
156166
156066
156104
156414
156633
156714
156653
156584
156472
156364
156235
156176
156120
156316
156471
156513
156657
156547
156427
156289
156199
156091
156076
156212
156262
156329
156500
156485
156397
156338
156220
156117
156129
156273
156352
156437
156453
156472
156478
156388
156218
156221
156193
156270
156291
156390
156502
156442
156391
156279
156122
156020
156096
156320
156398
156509
156456
156376
156212
156166
156110
156158
156102
156301
156470
156537
156505
156456
156375
156258
156126
156080
156132
156236
156353
156441
156553
156457
156370
156384
156203
156184
156128
156261
156355
156366
156458
156467
156314
156193
156142
156181
156207
156298
156314
156418
156484
156433
156316
156317
156237
156085
156026
156132
156221
156341
156591
156522
156386
156334
156292
156191
156139
156299
156452
156503
156565
156423
156336
156313
156361
156253
156228
156269
156444
156484
156481
156343
156271
156386
156254
156063
156043
156275
156372
156470
156570
156542
156396
156337
156301
156180
156080
156199
156228
156424
156647
156530
156417
156194
155957
155878
156051
156295
156379
156369
156538
156529
156346
156210
156163
156086
156092
156233
156353
156351
156407
156426
156377
156317
156066
155947
155980
156126
156252
156351
156482
156394
156281
156213
156228
156288
156231
156281
156353
156342
156362
156426
156297
155978
156002
155989
155811
156032
156240
156251
156159
156188
156180
156033
156047
156081
156031
156137
156214
156259
156347
156439
156347
156240
156198
156073
156030
156212
156353
156311
156352
156388
156213
156130
156150
156020
155971
156049
156170
156276
156391
156411
156408
156323
156235
156117
156067
156189
156260
156291
156382
156324
156261
156167
156152
156130
156128
156116
156212
156276
156334
156374
156232
156092
156109
156047
156020
156204
156283
156239
156316
156439
156373
156279
156129
156092
156019
156144
156278
156337
156332
156066
155875
155786
155678
155631
155678
155806
155849
155855
155935
155948
155997
155957
155984
155949
155950
156101
156132
156141
156205
156346
156328
156243
156201
156128
156071
156137
156211
156245
156310
156307
156343
156025
155999
155973
155944
156103
156271
156359
156364
156381
156308
156231
156073
155991
155742
155621
155890
156223
156462
156332
156269
156249
156190
156105
155985
156106
156227
156233
156399
156433
156400
156297
156240
156102
155989
156058
156130
156198
156361
156431
156437
156232
156239
156141
156098
156337
156432
156449
156505
156499
156408
156485
156536
156231
156075
156081
156089
156075
156035
156034
156087
155893
155755
155624
155519
155600
155696
155762
155914
155943
156021
155873
155861
155872
155808
156000
156137
155920
155942
156002
156007
155969
155957
155831
155713
155866
155927
155912
156027
156043
156051
156104
155973
155862
155834
155965
156024
156059
156176
156270
156231
156030
155989
155954
155874
155906
156027
156126
156146
156130
156121
156079
156050
155965
155851
156002
156153
156165
156283
156278
156275
156060
155928
155935
155901
156001
156120
156253
156311
156211
156248
156190
156217
156014
155901
155938
156091
156136
156252
156262
156255
156208
156140
156082
156006
156057
156211
156356
156362
156327
156331
156325
156231
156072
155988
155998
156146
156194
156248
156397
156433
156356
156337
156249
156114
156051
156203
156292
156339
156434
156341
156318
156293
156274
156211
156200
156310
156459
156580
156619
156602
156426
156339
156253
156243
156248
156357
156424
156567
156645
156663
156573
156410
156251
156162
156153
156292
156353
156452
156591
156638
156435
156348
156314
156222
156286
156444
156311
156269
156368
156411
156396
156330
156248
156150
156188
156323
156381
156480
156454
156480
156444
156332
156213
156086
156130
156317
156399
156437
156445
156426
156292
156208
156119
156105
156165
156319
156465
156545
156515
156533
156373
156241
156237
156096
156180
156322
156418
156549
156505
156509
156439
156306
156253
156129
156305
156344
156405
156470
156507
156585
156489
156442
156248
156104
156111
156182
156354
156402
156423
156463
156375
156392
156509
156279
156195
156315
156422
156485
156539
156558
156405
156266
156176
156066
156195
156361
156475
156592
156549
156496
156477
156463
156319
156145
156200
156247
156372
156501
156536
156613
156521
156364
156316
156297
156306
156402
156520
156543
156596
156643
156601
156467
156267
156249
156439
156511
156555
156635
156680
156697
156623
156526
156401
156264
156268
156421
156536
156594
156664
156802
156780
156544
156434
156376
156394
156474
156589
156681
156788
156749
156614
156529
156418
156317
156288
156405
156556
156669
156755
156776
156750
156624
156499
156368
156388
156491
156564
156603
156631
156643
156574
156548
156537
156442
156403
156492
156610
156680
156712
156849
156742
156629
156549
156461
156375
156534
156637
156662
156774
156841
156838
156676
156553
156451
156455
156531
156691
156705
156831
156905
156816
156675
156632
156494
156534
156616
156715
156750
156771
156800
156770
156741
156696
156526
156517
156669
156817
156860
156888
156948
156843
156671
156565
156392
156468
156545
156855
156916
156979
157121
156953
156760
156693
156594
156644
156705
156761
156867
156959
156991
156860
156760
156810
156724
156742
156787
156843
156923
156991
157009
156998
156920
156761
156651
156610
156731
156881
156932
156982
157100
157057
156847
156797
156749
156736
156822
157011
156983
156992
157145
157140
156960
156904
156845
156760
156864
156961
157005
157126
157136
157043
156967
157042
156907
156896
156964
157020
157048
157130
157190
157185
157080
157004
156941
156963
156999
157098
157231
157362
157373
157332
157163
157081
157045
157115
157118
157062
157179
157330
157359
157240
157109
157181
157216
157171
157185
157268
157355
157340
157375
157316
157206
157132
157028
157077
157055
157159
157250
157319
157346
157349
157302
157310
157201
157140
157161
157295
157351
157262
157358
157392
157310
157302
157246
157315
157365
157418
157452
157470
157483
157440
157366
157303
157140
157102
157152
157377
157476
157604
157734
157661
157539
157596
157485
157437
157515
157647
157768
157822
157875
157685
157555
157525
157457
157419
157457
157408
157300
157309
157381
157341
157230
157225
157066
156994
157109
157221
157311
157416
157539
157637
157481
157487
157419
157405
157454
157627
157723
157832
157853
157759
157662
157634
157500
157488
157575
157726
157696
157873
157948
157907
157816
157757
157664
157655
157596
157709
157825
157958
158052
157992
157765
157762
157752
157746
157758
157851
157965
158084
158103
158035
157935
157787
157610
157723
157807
157982
158038
158100
158183
158240
158124
157968
157786
157841
157840
157932
158013
158091
158220
158232
158084
158063
157965
157916
157916
158050
158137
158141
158271
158276
158222
158164
157989
157918
157982
158070
158204
158321
158344
158321
158292
158134
158049
158044
158128
158305
158300
158411
158426
158473
158325
158222
158187
158161
158169
158276
158307
158361
158392
158427
158336
158364
158232
158224
158231
158367
158433
158436
158499
158545
158454
158407
158285
158190
158190
158325
158421
158514
158600
158533
158533
158330
158339
158278
158311
158407
158462
158492
158574
158668
158470
158437
158399
158327
158272
158296
158492
158621
158715
158760
158594
158489
158421
158398
158351
158447
158530
158570
158670
158760
158684
158644
158511
158495
158479
158481
158576
158602
158692
158792
158684
158560
158444
158475
158468
158696
158814
158743
158858
158862
158704
158569
158504
158414
158555
158707
158774
158792
158917
158906
158702
158644
158542
158448
158543
158665
158826
158898
158999
158967
158825
158749
158645
158579
158626
158603
158740
158711
158917
159028
158947
158818
158639
158526
158529
158602
158761
158878
158946
158914
158806
158763
158586
158525
158626
158751
158774
158893
158970
158981
158927
158801
158665
158652
158684
158750
158808
158852
158961
159013
158900
158869
158707
158680
158723
158828
158921
158930
158973
158994
158914
158913
158878
158757
158737
158885
158933
158945
159057
159139
158983
158833
158719
158647
158632
158759
159010
159129
159146
159133
159045
158926
158776
158732
158740
158811
158796
158880
159061
159066
158980
158827
158790
158846
158764
158842
159000
159065
159082
158978
158949
158839
158722
158722
158761
158817
158866
158916
159114
159190
159021
158905
158756
158699
158729
158779
158804
158848
159043
159088
158997
158927
158774
158795
158753
158771
158832
158985
159050
159024
158941
158950
158899
158818
158776
158839
158948
158974
159068
159059
158911
158750
158653
158681
158681
158856
159018
158995
159069
159092
159012
159011
158830
158743
158690
158738
158867
158896
158972
158981
159006
158924
158790
158710
158725
158854
158963
159022
159061
159052
158978
158835
158739
158683
158644
158755
158865
158855
159003
159187
159171
158999
158837
158790
158746
158771
158749
158854
159078
159128
159061
158958
158908
158824
158667
158749
158915
158997
159169
159173
159102
158966
158888
158735
158727
158776
158927
159065
159193
159223
159162
158981
158841
158800
158788
158800
158813
158998
159192
159287
159203
159088
158974
158862
158791
158858
159039
159139
159207
159191
159079
158974
158906
158845
158802
158882
159051
159100
159245
159275
159146
159012
158868
158757
158749
158788
159077
159113
159172
159221
159155
158981
158817
158830
158797
158898
159117
159100
159184
159185
159146
159007
158963
158855
158813
158840
158884
158975
159154
159219
159145
159014
158857
158904
158913
158869
158935
158950
159092
159213
159217
159101
158988
158896
158772
158757
158880
158982
159142
159228
159182
159145
158910
158879
158921
158822
158880
158898
159042
159164
159123
158972
158961
158885
158821
158837
158957
159039
159095
159105
159037
158933
158832
158854
158743
158811
158901
158998
159163
159222
159093
158974
158913
158781
158722
158745
158925
158923
159045
159146
159101
159012
158925
158873
158905
158890
158869
158984
159246
159371
159399
159305
159188
159108
159018
159007
159095
159075
159113
159129
159088
158867
158755
158575
158058
158013
158272
158416
158500
158588
158638
158586
158647
158546
158433
158517
158660
158774
158923
159031
159052
158936
158830
158737
158718
158749
158917
158903
158987
159077
159068
158891
158794
158718
158694
158721
158854
158922
158987
159015
159019
158936
158791
158706
158667
158685
158834
158813
158918
159075
159049
158932
158822
158707
158603
158596
158827
158882
158935
158709
158523
158502
158541
158639
158699
158752
158586
158340
158528
158645
158629
158330
158380
158499
158533
158569
158691
158772
158938
159085
159017
158852
158783
158732
158642
158644
158818
158903
159070
159071
159041
158901
158852
158897
158766
158742
158860
158873
159038
159135
159016
158973
158862
158809
158750
158727
158870
158931
158985
159010
159061
158989
158808
158769
158730
158642
158672
158806
159006
159157
159220
159110
158945
158826
158767
158772
158811
158836
158960
159071
159071
159065
159011
158902
158763
158718
158805
158862
158962
159085
159051
158895
158760
158656
158500
158478
158619
158827
159086
159255
159262
159084
158929
158833
158725
158715
158860
158911
158958
159037
158974
158909
158845
158789
158747
158726
158811
158842
159032
159105
159124
159058
158940
158884
158762
158610
158674
158716
158897
159066
159183
159176
158952
158805
158733
158804
158854
158912
158975
159095
159024
158882
158770
158856
158886
158737
158830
158878
158985
159113
159118
158822
158698
158768
158698
158663
158760
158810
158965
159093
159084
158913
158767
158738
158689
158620
158678
158763
158896
159038
159055
159009
158849
158762
158689
158653
158713
158796
158928
158965
159062
159020
158809
158761
158663
158620
158732
158813
158861
158989
159093
158995
158941
158876
158709
158648
158755
158882
159082
159059
159031
158953
158842
158770
158703
158788
158796
158896
159027
159109
159137
159094
158884
158877
158783
158742
158727
158829
159036
159141
159214
159137
158974
159006
158940
158732
158794
158905
159014
159130
159123
159008
158805
158807
158799
158958
158876
159008
159096
159113
159128
159070
158905
158837
158765
158772
158893
158903
159016
159135
159156
159089
158981
158898
158761
158646
158701
158883
159023
159127
159164
159079
158894
158858
158764
158815
158851
158931
159052
159114
159174
159156
159021
158920
158769
158780
158838
158992
159089
159045
159086
159090
158929
158890
158969
158908
158889
158933
158995
159096
159090
159047
158944
158908
158837
158810
158878
158993
159155
159072
158934
158950
158863
158808
158733
158734
158824
158973
159039
159115
159181
159141
158994
158956
158852
158791
158852
158911
158916
159204
159251
159154
159097
159076
158917
158800
158795
159007
159128
159049
159131
159111
158962
158927
158832
158764
158850
158833
159027
159100
159196
159136
158916
158833
158815
158848
158874
158954
159041
159139
159199
159107
158891
158801
158728
158780
158787
159037
159140
158873
158470
158399
158598
158572
158402
158367
158522
158778
158895
159004
159133
159171
159119
159092
158961
158929
158893
158985
159039
159172
159192
159207
158963
158837
158790
158817
158913
159040
159170
159155
159201
159192
159029
158572
158287
158380
158653
158826
158921
159068
159125
159135
158949
158916
158859
158785
158801
158872
159019
159129
159251
159213
158970
158947
158466
158370
158585
158793
158896
158886
158987
159030
158903
158916
158894
158811
158761
158832
158961
159133
159173
159191
159028
158957
158978
158956
158961
159090
159290
159337
159471
159470
159299
159097
158997
158875
158978
159085
159007
159021
158958
158826
158558
158534
158482
158452
158497
158558
158659
158729
158841
158906
158762
158753
158682
158638
158715
158797
158933
159054
159088
159135
158983
158957
158804
158717
158806
158875
158999
159065
159090
159100
158933
158897
158750
158765
158897
158915
159027
159037
159047
158998
158938
158881
158813
158780
158663
158723
158840
158870
159054
159207
159073
158862
158741
158653
158614
158688
158768
158775
158836
158847
158769
158803
158759
158623
158613
158700
158785
158857
159070
158985
158739
158661
158623
158571
158547
158596
158711
158786
158960
158918
158745
158737
158737
158581
158504
158557
158718
158870
158902
158942
158884
158772
158644
158612
158591
158657
158782
158875
158913
159025
159087
158940
158617
158644
158677
158727
158755
158809
158870
158900
158832
158849
158722
158621
158646
158691
158746
158739
158775
158797
158665
158594
158534
158519
158599
158737
158783
158970
159059
158983
158874
158772
158700
158678
158674
158739
158874
158863
158824
158873
158634
158639
158611
158531
158546
158499
158574
158708
158844
158892
158787
158746
158724
158575
158521
158616
158755
158763
158795
158815
158822
158810
158708
158603
158508
158537
158616
158810
158929
159028
158939
158926
158927
158888
158855
158887
158969
159024
159061
159132
159079
158929
158847
158798
158856
158837
158959
159072
159199
159220
159029
158881
158809
158772
158719
158723
158890
159001
159176
159189
159111
158979
158866
158788
158810
158844
158938
158956
159012
159030
158964
158643
157845
157876
158071
158217
158441
158558
158592
158731
158671
158582
158418
158321
158354
158365
158587
158643
158788
158849
158772
158647
158563
158474
158452
158499
158586
158760
158836
158781
158643
158553
158561
158486
158453
158505
158746
158796
158859
158875
158890
158818
158700
158586
158482
158595
158673
158737
158831
158883
158775
158724
158613
158563
158631
158623
158812
158950
159118
159101
159012
158934
158909
158809
158730
158653
158690
158891
159157
159273
159137
159014
158929
158792
158824
158808
158958
159084
159218
159175
159092
158971
158872
158783
158763
158784
158814
158876
158989
159129
159097
159034
158855
158705
158637
158689
158949
159082
159139
159098
158989
158916
158853
158672
158657
158749
158909
158956
159076
159113
159029
158914
158863
158761
158734
158759
158919
159051
159146
159064
158978
158966
158951
158834
158790
158689
158780
158908
159083
159154
159032
158848
158798
158716
158638
158740
158901
158950
159009
159077
158990
158947
158913
158791
158750
158760
158915
158934
158923
159008
159018
158949
158898
158840
158787
158804
158910
158926
159047
159241
159178
158908
158830
158728
158666
158661
158870
159005
159270
159296
159136
159013
158912
158809
158766
158806
158887
159015
159106
159129
159036
158941
158897
158826
158751
158708
158928
159077
159221
159306
159130
158957
158868
158757
158791
158867
159064
159117
159098
159139
159056
158937
158868
158873
158804
158792
158916
158903
159061
159223
159111
158984
158944
158840
158809
158844
158853
158994
159203
159207
159189
159123
159026
158897
158805
158757
158929
159010
159147
159253
159168
159074
158966
158871
158857
158838
158941
159007
159091
159162
159065
158959
158882
158887
158783
158870
159021
159108
159167
159143
159081
158998
159020
158958
158971
158783
158849
158993
159146
159212
159117
158999
158910
158806
158742
158795
159001
159084
159085
159185
159127
159020
158845
158803
158816
158781
158875
158961
159012
159120
159142
159058
159030
158962
158828
158822
158931
158986
159083
159089
159024
158993
158946
158956
158904
158896
158992
159085
159261
159321
159418
159358
159289
159130
159039
159022
159190
159264
159256
159266
159143
159011
158933
158667
158532
158474
158680
158792
158804
158855
158801
158789
158672
158643
158553
158536
158689
158776
158928
159127
159096
159049
158993
158898
158820
158850
158942
159025
159105
159141
159268
159172
158944
158936
158881
158824
158973
159071
159123
159184
159119
159051
158990
158858
158818
158803
158949
159051
159118
159199
159107
159066
158985
158854
158738
158796
158961
159056
159139
159194
159153
159065
159031
159052
158903
158788
158928
159046
159081
159163
159220
159173
159102
158975
158841
158737
158881
159044
159136
159328
159281
159161
159007
158885
158755
158802
158927
159075
159164
159197
159236
159216
159020
158882
158837
158842
158988
159131
159213
159273
159193
159155
159019
158997
158995
158837
158957
159062
159129
159197
159210
159131
159050
159036
158914
158880
159013
159109
159135
159198
159175
159217
159101
158946
158939
158918
158891
158987
159148
159209
159193
159134
159099
158963
158812
158774
158927
159093
159158
159232
159213
159072
158971
158919
158877
158939
158949
159015
159130
159199
159216
159189
159128
158937
158757
158701
158829
158955
159019
159173
159241
159102
159020
158927
158850
158756
158842
158974
159039
159136
159109
159139
159127
159073
158912
158805
158843
159030
159101
159177
159142
159188
158971
158899
158855
158810
158933
159013
159104
159171
159187
159178
159012
158914
158863
158868
158920
159042
159094
159239
159229
159095
158959
158916
158868
158898
159012
159102
159148
159206
159137
159088
158976
158910
158929
158926
158954
159002
159067
159160
159119
159099
158980
158912
158905
158872
158925
159049
159035
159116
159182
159151
158947
158921
158877
158846
159048
159138
159044
159168
159212
159150
158962
158910
158869
158836
158890
159052
159061
159157
159186
159139
159053
159059
158906
158863
158923
159026
159107
159228
159259
159165
159060
158992
158830
158784
158913
158936
159146
159253
159221
159167
159075
158961
158821
158766
158872
159094
159131
159165
159212
159281
159061
158935
158842
158798
158814
158901
159024
159179
159122
159034
158951
159077
159110
158932
159004
158983
159081
159089
159163
159179
159090
159017
158961
158856
158859
158991
159079
159201
159274
159314
159091
159004
158867
158805
158917
159042
159155
159262
159225
159241
159066
158927
158851
158804
158862
159001
159081
159289
159365
159249
159101
159060
158999
158928
158928
159075
159154
159224
159258
159249
159077
158899
158853
158763
158933
159187
159184
159316
158553
157989
158300
158458
158514
158504
158575
158776
158947
159240
159200
159160
159029
158940
158856
158698
158733
158877
159041
159042
159033
159032
158936
158861
158785
158785
158784
158869
158838
158955
159097
159103
159004
158948
158853
158698
158710
158779
158828
159033
159134
159162
158953
158857
158800
158697
158706
158821
158963
159073
159130
159191
158994
158888
158819
158706
158809
158838
158951
159043
159025
159084
158935
158926
158822
158672
158679
158836
158946
159033
159022
159068
158935
158822
158747
158637
158672
158912
159013
159060
158974
158974
159026
159035
158884
158704
158643
158854
158864
158929
159008
159063
158967
158862
158708
158658
158680
158859
158941
158967
158985
158981
158735
158826
158782
158751
158757
158862
158907
158951
158951
158975
158943
158850
158818
158676
158689
158752
158795
158983
159073
159037
158970
158956
158824
158672
158654
158797
158944
159001
159008
159091
158997
158994
158859
158753
158733
158845
158961
159023
159077
159173
159068
158949
158857
158747
158674
158759
158788
158918
159046
159092
158875
158879
158760
158630
158746
158807
158884
158994
159081
159103
159012
158929
158855
158728
158685
158806
158931
158966
159001
158961
158872
158871
158779
158633
158678
158780
158876
158852
158889
159021
158959
158750
158601
158395
158353
158487
158611
158708
158775
158805
158719
158775
158845
158804
158809
158883
159057
159217
159321
159386
159204
159023
158879
158713
158737
158898
158801
158810
158810
158766
158546
158407
158310
158215
158205
158295
158393
158598
158775
158746
158708
158607
158577
158498
158682
158754
158850
158904
158919
158987
158952
158768
158653
158609
158609
158714
158875
158957
158945
158936
158918
158902
158756
158553
158553
158697
158873
158910
158869
158896
158842
158884
158808
158671
158681
158719
158824
158940
159014
159035
158870
158780
158722
158689
158705
158747
158800
158823
158900
158972
158961
158719
158210
157958
157966
158332
158595
158795
158962
158958
158858
158671
158663
158472
158487
158431
158262
158374
158655
158725
158569
158416
158548
158456
158492
158440
158397
158487
158532
158623
158647
158670
158624
158560
158546
158635
158775
158830
158847
158910
158910
158812
158755
158626
158539
158566
158711
158862
158910
158995
158907
158819
158741
158697
158741
158806
158883
158777
158544
158455
158395
158419
158527
158574
158503
158554
158634
158786
158888
158885
158841
158822
158783
158620
158628
158645
158656
158677
158779
158958
158917
158791
158730
158598
158622
158639
158693
158807
158847
158987
158913
158715
158627
158585
158590
158618
158733
158805
158855
158916
158907
158705
158692
158620
158600
158642
158724
158750
158841
158910
158878
158779
158674
158613
158524
158511
158695
158773
158866
158944
158886
158767
158681
158562
158540
158572
158689
158874
158961
159006
158953
158833
158691
158545
158571
158646
158778
158862
158879
158957
158901
158817
158711
158597
158626
158670
158782
158888
158905
158994
158992
158824
158708
158581
158537
158529
158650
158793
158905
158911
158891
158806
158735
158646
158635
158634
158764
158829
158906
158954
158915
158777
158669
158535
158506
158674
158771
158835
158883
159015
159039
158804
158664
158566
158568
158729
158819
158969
158958
159012
158992
158891
158804
158592
158528
158575
158757
158806
158823
159034
158955
158837
158800
158678
158630
158620
158786
158838
158818
158892
158894
158747
158692
158725
158770
158650
158759
158827
158788
158884
158936
158794
158739
158672
158595
158603
158779
158760
158836
158967
158958
158875
158822
158624
158535
158551
158667
158763
158873
159040
159030
158770
158661
158665
158630
158628
158799
158821
158826
158905
158941
158854
158826
158652
158568
158683
158764
158850
158928
158925
158915
158805
158828
158755
158645
158605
158734
158882
158969
159067
159077
159024
158759
158663
158688
158592
158705
158801
158773
158881
158998
158925
158744
158687
158745
158797
158859
158891
158940
159015
158941
158822
158750
158635
158499
158663
158800
158689
157912
158318
158691
158786
158648
158529
158515
158521
158646
158708
158719
158864
158833
158807
158803
158760
158689
158651
158745
158776
158776
158920
158910
158799
158786
158697
158615
158592
158688
158792
158912
159012
159020
158895
158797
158698
158647
158688
158742
158863
158849
158888
158894
158810
158649
158637
158804
158896
158898
158895
158947
158945
159039
158940
158796
158721
158639
158639
158686
158762
158848
159010
159081
159001
158961
158884
158729
158697
158893
158987
158953
159088
159130
159013
158907
158752
158583
158587
158719
158813
158903
159111
159053
158949
158855
158709
158603
158675
158793
158845
158876
158983
158736
157860
158066
158284
158383
158415
158584
158731
158833
158984
158963
158826
158690
158652
158661
158661
158681
158729
158338
158308
158288
158185
158161
158075
158148
158207
158235
158363
158472
158721
158944
158912
158982
158833
158552
158467
158448
158514
158470
158505
158500
158500
158357
158177
157933
157918
157977
158122
158124
158240
158337
158319
158307
158264
158263
158233
158323
158527
158571
158672
158694
158641
158602
158560
158463
158426
158454
158531
158730
158766
158755
158621
158441
158338
158232
158397
158401
158534
158571
158660
158708
158655
158631
158578
158470
158413
158443
158551
158553
158663
158674
158695
158653
158557
158433
158379
158471
158592
158676
158738
158665
158672
158504
158479
158424
158454
158493
158648
158661
158733
158752
158676
158464
158405
158342
158245
158249
158450
158558
158819
158789
158701
158581
158470
158398
158373
158461
158612
158593
158665
158666
158617
158469
158413
158327
158335
158536
158713
158665
158733
158741
158750
158624
158490
158479
158294
158351
158604
158603
158720
158686
158684
158680
158647
158535
158418
158495
158651
158725
158802
158837
158804
158675
158569
158475
158433
158470
158566
158601
158746
158801
158733
158595
158519
158488
158431
158492
158590
158586
158663
158746
158693
158631
158574
158533
158622
158746
158863
158783
158853
159024
159030
158898
158809
158649
158630
158659
158872
158901
159038
159110
158985
158937
158834
158768
158751
158764
158867
158963
159102
159080
159015
158892
158824
158781
158729
158705
158834
158861
158977
159105
159144
158902
158726
158708
158634
158620
158877
158888
159073
159204
159070
158939
158863
158796
158705
158717
158781
158845
158992
159093
159129
159072
158887
158849
158716
158688
158846
158921
158940
159080
159014
158814
158764
158858
158825
158704
158834
158936
159092
159052
159018
158913
158830
158814
158717
158652
158795
158832
158941
159049
159011
158947
158931
158732
158603
158674
158867
158918
159011
159097
159121
158965
158826
158747
158661
158663
158873
158934
159014
159051
159074
158971
158838
158771
158772
158753
158854
158915
159073
159119
159242
158971
158821
158766
158707
158745
158881
158939
159017
159097
159132
158987
158791
158815
158784
158768
158839
158879
159016
159103
159110
159039
158956
158913
158762
158688
158768
158870
159056
159101
159048
159060
158895
158881
158867
158799
158866
158963
159042
159052
159072
158929
158823
158770
158753
158747
158835
158912
158960
159068
159060
159027
158930
158799
158697
158718
158907
159001
159059
159100
159126
159084
158894
158888
158761
158703
158845
158902
158954
159059
159244
159114
158898
158811
158782
158723
158778
158910
159044
159041
159105
159032
158990
159022
158881
158838
158865
158930
159015
159102
159076
158958
158832
158863
158871
158842
158855
158967
159068
159073
159088
159135
158971
158955
158868
158784
158826
158916
158953
159056
159215
159024

[算法提取后的结构化特征]
# 由 EcgFeatureExtractor.extract() + toPromptText() 在手机端重建
# 与手表端发给 DeepSeek 的提示词文本一致（DS 实际收到的数据）
# 注意: 用户 profile（年龄性别）未存入测量记录，手机端重建时为'未知'
#       助手如需年龄性别做医学判断，需用户单独提供

[用户属性]

[全局指标]
采样率:500Hz 时长:30.8s 总点数:15410
R波检测:0个 平均心率:0bpm 范围:0-0bpm
SDNN:0.0ms RMSSD:0.0ms pNN50:0.0%
QRS宽度(本地估测,ms):0±0
PR间期(本地估测,ms):0±0
QT间期(本地估测,ms):0 QTc(Bazett):0ms QTc(Fridericia):0ms
R波平均振幅:0.00mV
信号质量:0.85 良好

[节律判别特征]
RR变异系数:0.000(规律)
Poincaré散点形态:数据不足
短-长RR配对数(早搏代偿):0个

[逐秒分段]
时段(s)  R波  振幅范围(mV)  峰峰值(mV)  最大斜率(mV/s)  RMS(mV)
0.0-1.0  0  -1.33~1.19  2.53  153.00  0.58
1.0-2.0  0  -0.93~1.08  2.00  134.00  0.41  ← 本秒无R波(心率<60或代偿间隙)
2.0-3.0  0  -0.98~0.94  1.92  125.50  0.46  ← 本秒无R波(心率<60或代偿间隙)
3.0-4.0  0  -0.77~1.16  1.93  133.00  0.47  ← 本秒无R波(心率<60或代偿间隙)
4.0-5.0  0  -0.92~1.10  2.03  156.00  0.52  ← 本秒无R波(心率<60或代偿间隙)
5.0-6.0  0  -0.67~0.70  1.37  133.00  0.33  ← 本秒无R波(心率<60或代偿间隙)
6.0-7.0  0  -0.66~0.54  1.19  151.50  0.18  ← 本秒无R波(心率<60或代偿间隙)
7.0-8.0  0  -0.65~0.45  1.10  166.50  0.24  ← 本秒无R波(心率<60或代偿间隙)
8.0-9.0  0  -0.46~0.40  0.86  188.00  0.18  ← 本秒无R波(心率<60或代偿间隙)
9.0-10.0  0  -0.85~0.63  1.48  149.50  0.29  ← 本秒无R波(心率<60或代偿间隙)
10.0-11.0  0  -0.96~0.60  1.57  150.00  0.29  ← 本秒无R波(心率<60或代偿间隙)
11.0-12.0  0  -0.59~0.45  1.04  141.00  0.18  ← 本秒无R波(心率<60或代偿间隙)
12.0-13.0  0  -0.85~0.62  1.48  134.50  0.30  ← 本秒无R波(心率<60或代偿间隙)
13.0-14.0  0  -0.98~0.69  1.68  128.00  0.29  ← 本秒无R波(心率<60或代偿间隙)
14.0-15.0  0  -0.81~0.69  1.50  153.00  0.30  ← 本秒无R波(心率<60或代偿间隙)
15.0-16.0  0  -1.05~0.80  1.85  125.50  0.37  ← 本秒无R波(心率<60或代偿间隙)
16.0-17.0  0  -0.94~0.83  1.78  120.50  0.38  ← 本秒无R波(心率<60或代偿间隙)
17.0-18.0  0  -1.00~1.70  2.70  158.50  0.67  ← 本秒无R波(心率<60或代偿间隙)
18.0-19.0  0  -1.26~0.43  1.69  197.50  0.25  ← 本秒无R波(心率<60或代偿间隙)
19.0-20.0  0  -1.10~0.77  1.87  218.00  0.33  ← 本秒无R波(心率<60或代偿间隙)
20.0-21.0  0  -0.87~0.50  1.36  286.00  0.22  ← 本秒无R波(心率<60或代偿间隙)
21.0-22.0  0  -0.99~0.60  1.58  293.50  0.27  ← 本秒无R波(心率<60或代偿间隙)
22.0-23.0  0  -0.71~0.44  1.15  235.00  0.21  ← 本秒无R波(心率<60或代偿间隙)
23.0-24.0  0  -0.71~0.49  1.19  166.50  0.21  ← 本秒无R波(心率<60或代偿间隙)
24.0-25.0  0  -0.88~1.37  2.25  155.00  0.55  ← 本秒无R波(心率<60或代偿间隙)
25.0-26.0  0  -0.88~0.60  1.48  258.50  0.27  ← 本秒无R波(心率<60或代偿间隙)
26.0-27.0  0  -0.61~0.57  1.18  240.50  0.19  ← 本秒无R波(心率<60或代偿间隙)
27.0-28.0  0  -1.02~0.56  1.57  399.00  0.21  ← 本秒无R波(心率<60或代偿间隙)
28.0-29.0  0  -0.99~0.39  1.38  381.50  0.17  ← 本秒无R波(心率<60或代偿间隙)
29.0-30.0  0  -0.90~0.63  1.53  438.00  0.19  ← 本秒无R波(心率<60或代偿间隙)

[AI 解读]
# DeepSeek 返回的原始 JSON（未清洗，可能含 markdown 代码块包裹）
本次测量未使用 AI 分析（分析方法非 ds_*）
