========== ECG 算法诊断包 ==========
测量时间: 2026-07-16 18:28:59
测量时间戳:1784197739646
采样率:500 Hz
数据点数:15320
时长:30.6 秒
分析方法:ds_flash_balanced
Tavily状态:未触发（仅 Max 档联网检索）

[原始 ECG 数据]
# 单位: mV×1000 整数（如 500 = 0.5mV，-1000 = -1.0mV）
# 采样率: 500 Hz，连续采样，无降采样无压缩
# 用途: 助手据此复现本地算法行为（基线漂移/噪声段/R波检测）
# 格式: 每行一个数值，行号=采样点索引（第1行=索引0，即 t=0.000s）
163293
163275
163312
163401
163349
163312
163338
163131
162885
162766
162554
162682
162763
162820
162897
162988
163048
163088
163043
163028
162890
162879
163008
163258
163353
163433
163503
163548
163472
163318
163195
163189
163290
163407
163416
163393
163612
163741
163841
163756
163569
163478
163513
163605
163679
163782
163952
163924
163664
163716
163604
163526
163607
163779
163927
164076
164179
164057
163873
163811
163714
163777
163862
163890
163895
163939
164182
164216
164045
164031
163909
163837
163817
163949
164034
164257
164431
164296
164117
164074
163982
164031
164169
164232
164291
164350
164438
164365
164306
164292
164086
163998
164139
164446
164535
164617
164659
164667
164555
164514
164321
164350
164355
164518
164653
164745
164741
164755
164644
164525
164424
164411
164477
164612
164688
164739
164834
164820
164675
164651
164504
164506
164617
164773
164772
164836
164923
164910
164754
164678
164608
164607
164585
164678
164818
164857
164925
164859
164786
164790
164652
164618
164638
164720
164813
164897
165022
165037
165082
165042
164911
164866
164843
164951
165112
165181
165317
165288
165198
165178
165072
165040
165153
165286
165323
165359
165489
165493
165369
165203
165057
165183
165338
165524
165623
165588
165653
165637
165515
165454
165310
165272
165345
165452
165546
165658
165750
165642
165603
165506
165446
165486
165454
165539
165632
165612
165713
165734
165638
165585
165541
165481
165414
165376
165464
165609
165821
165889
165751
165752
165638
165526
165566
165667
165747
165769
165883
165928
165779
165696
165648
165575
165638
165717
165752
165840
165924
165914
165780
165681
165599
165592
165551
165773
165874
165888
165996
166004
165862
165802
165701
165673
165706
165775
165791
165882
166050
166095
165964
165912
165757
165737
165762
165916
166103
166077
166148
166176
166105
166024
165917
165860
165946
166148
166283
166341
166487
166500
166409
166305
166236
166200
166196
166384
166464
166569
166673
166676
166626
166449
166381
166337
166264
166448
166546
166594
166678
166705
166718
166636
166503
166507
166509
166538
166621
166784
166908
166919
166825
166661
166692
166575
166528
166600
166735
166835
166876
166865
166845
166842
166775
166659
166602
166767
166823
166874
166965
166977
166854
166725
166660
166701
166777
166931
167016
166974
167065
167132
167057
166950
166804
166738
166717
166803
166981
167069
167231
167248
167192
167079
166902
166801
166824
166986
167090
167171
167222
167157
167105
167021
167027
166941
166738
166784
166945
167079
167280
167363
167359
167164
167087
167107
167069
167081
167125
167062
167318
167427
167431
167283
167173
167157
167143
167220
167285
167262
167394
167409
167405
167265
167080
167028
167027
167117
167285
167451
167546
167540
167494
167357
167194
167160
167222
167299
167450
167402
167540
167576
167488
167373
167255
167205
167303
167279
167373
167447
167639
167722
167769
167572
167525
167460
167357
167441
167527
167609
167831
167864
167814
167638
167535
167484
167465
167530
167624
167624
167775
167786
167683
167602
167589
167550
167501
167685
167839
167775
167874
167908
167875
167828
167789
167621
167555
167643
167828
167828
167935
168046
168006
167838
167744
167667
167620
167695
167885
167916
168090
168101
168113
167909
167788
167769
167798
167773
167808
167772
167870
167959
168051
167998
167969
167946
167979
167980
168020
167988
168041
168132
168160
168096
168040
168026
168037
167959
168132
168156
168253
168292
168218
168089
167956
168057
168198
168126
168223
168256
168345
168335
168277
168161
168120
168179
168113
168186
168307
168379
168488
168643
168642
168535
168440
168437
168406
168530
168574
168605
168700
168845
168808
168494
168260
168168
168042
167958
168036
168043
168114
168096
168170
168088
168111
168073
168014
168037
168273
168381
168454
168566
168579
168540
168445
168343
168359
168386
168475
168580
168742
168878
168835
168734
168689
168659
168799
168792
168813
168778
168962
169116
169130
169002
168897
168823
168775
168754
168825
168851
168986
169037
169008
169015
168855
168723
168688
168829
169065
169082
169075
169093
169026
168943
168865
168882
168825
168906
169076
169082
169130
169165
169131
169068
168933
168875
168874
168857
168954
168953
169048
169103
169143
169010
168963
168971
168861
168782
168937
168986
169081
169161
169029
168911
168934
169002
168946
168870
168961
169098
169246
169274
169242
169120
168956
168918
168930
169034
169108
169105
169212
169271
169252
169178
169083
169063
169036
169090
169147
169133
169174
169262
169411
169258
169128
169134
169060
169061
169156
169031
169104
169185
169233
169181
169161
169160
169004
168948
169010
169119
169189
169244
169372
169418
169255
169166
169040
168972
169098
169259
169354
169442
169449
169350
169232
169169
169126
169012
169111
169241
169413
169533
169408
169268
169167
169206
169184
169187
169225
169289
169379
169436
169513
169421
169288
169248
169200
169190
169154
169181
169388
169525
169542
169422
169276
169292
169152
169054
169076
169137
169525
169663
169635
169457
169292
169273
169311
169242
169247
169271
169376
169451
169492
169435
169244
169236
169175
169203
169256
169273
169411
169547
169686
169576
169413
169348
169265
169212
169219
169277
169524
169708
169677
169552
169355
169314
169264
169274
169388
169435
169428
169623
169719
169597
169475
169412
169292
169293
169452
169591
169714
169722
169799
169734
169528
169509
169510
169574
169707
169774
169851
169836
169796
169800
169793
169746
169681
169605
169689
169752
169827
169906
170027
170025
169758
169696
169591
169508
169735
169806
169970
170059
169984
169826
169662
169599
169662
169679
169698
169815
169833
169819
169870
169861
169731
169724
169700
169727
169763
169840
169901
169910
169892
169838
169731
169724
169766
169757
169841
169939
169988
170017
170065
170039
169808
169743
169707
169697
169819
169996
170144
170169
170153
170033
169863
169825
169736
169757
169851
169979
170125
170172
170151
170113
169946
169968
169883
169848
169931
169967
170204
170309
170337
170172
169987
169998
169972
169868
169832
169957
170162
170353
170375
170202
170066
170069
170028
169911
169933
170011
170136
170285
170265
170167
170075
169977
169863
169911
169897
169943
170057
170145
170214
170196
170015
169955
169869
169811
169835
169923
170084
170182
170268
170231
170151
170015
169897
169922
170046
170029
170054
170093
170177
170195
170197
170192
170008
169958
170005
170080
170124
170156
170236
170219
170096
170085
170032
169952
169958
170036
170243
170393
170416
170325
170179
170132
170139
170080
170094
170152
170244
170416
170498
170446
170189
170127
170064
170042
170187
170253
170361
170474
170523
170536
170335
170280
170299
170290
170351
170450
170460
170489
170467
170484
170428
170363
170316
170265
170475
170611
170643
170756
170771
170701
170533
170504
170452
170507
170482
170545
170567
170639
170722
170752
170605
170519
170442
170437
170502
170531
170510
170552
170609
170675
170671
170570
170518
170478
170465
170622
170642
170701
170675
170670
170571
170613
170457
170380
170419
170437
170542
170713
170812
170771
170647
170557
170446
170372
170388
170543
170613
170678
170688
170652
170587
170580
170509
170439
170464
170546
170633
170842
170990
170934
170641
170536
170461
170446
170657
170686
170679
170740
170776
170836
170742
170687
170601
170532
170562
170653
170785
170841
170916
170973
170808
170826
170808
170666
170715
170819
170962
171114
171295
171295
171026
170953
170859
170757
170636
170667
170732
170684
170648
170656
170485
170405
170262
170227
170304
170371
170559
170763
170907
170909
170772
170774
170774
170700
170635
170755
170909
170954
171038
171171
170990
170856
170744
170656
170694
170798
170926
171028
171126
171072
170905
170858
170764
170726
170795
170776
170939
171051
171130
171077
170866
170785
170721
170709
170730
170829
170958
171013
171006
170963
170825
170883
170997
170842
170790
170938
171095
171108
171153
171206
171035
170956
170915
170940
170999
170980
171044
171145
171289
171326
171190
171106
170978
170849
170865
171047
171282
171292
171299
171332
171153
171033
170913
170865
170909
171083
171227
171259
171354
171351
171184
171092
171064
171009
170978
170989
171084
171223
171328
171348
171145
171010
170903
170942
171083
171182
171289
171251
171310
171295
171258
171253
171235
171170
171127
171154
171289
171454
171528
171535
171484
171383
171306
171174
171162
171200
171372
171508
171582
171589
171422
171256
171346
171311
171274
171337
171469
171580
171662
171647
171501
171392
171324
171278
171274
171302
171500
171576
171608
171658
171523
171465
171419
171439
171404
171437
171555
171543
171543
171527
171497
171526
171561
171482
171433
171569
171680
171720
171822
171853
171715
171562
171498
171470
171495
171555
171656
171780
171919
171991
171858
171700
171610
171545
171536
171614
171855
171818
171881
171836
171705
171620
171606
171695
171647
171581
171679
171788
171899
171905
171760
171756
171710
171586
171528
171549
171689
171771
172020
172050
171907
171770
171674
171632
171636
171685
171743
171864
172038
171998
171810
171894
171880
171791
171773
171732
171771
171855
172027
172116
172050
172013
171934
171816
171838
171816
171926
172040
172094
172181
172069
171940
171838
171843
171978
172012
172094
172100
172179
172149
172102
172001
171910
171821
171732
171750
171947
172063
172183
172198
172117
172048
171911
171777
171753
171776
171925
171971
172028
172056
171987
171938
171851
171782
171742
171755
171884
171909
171997
172069
171987
171853
171770
171726
171782
171825
171881
171887
171980
172176
172156
171948
171938
171781
171715
171785
171970
172063
172209
172205
172083
172005
171905
171833
171938
172006
172085
172169
172214
172272
172235
172245
172116
172006
171888
171969
172057
172114
172253
172334
172286
172242
172193
172067
171956
172024
172154
172276
172295
172348
172324
172238
172221
172120
172122
172128
172232
172297
172299
172340
172311
172351
172272
172182
172116
172098
172224
172216
172259
172342
172374
172319
172239
172115
172052
171996
172069
172102
172197
172327
172288
172220
172184
172059
171973
171913
172060
172245
172375
172298
172245
172233
172168
172103
172060
172014
172174
172271
172346
172344
172222
172213
172139
172020
171981
171969
172150
172264
172339
172367
172321
172204
172056
171949
171942
171966
172157
172263
172261
172295
172261
172284
172214
172125
172046
171978
172145
172302
172343
172463
172434
172336
172220
172098
172008
172038
172197
172357
172428
172534
172559
172460
172337
172267
172154
172121
172291
172362
172436
172464
172402
172319
172210
172187
172179
172295
172366
172478
172527
172558
172514
172457
172328
172333
172296
172253
172312
172368
172430
172566
172641
172605
172490
172370
172283
172202
172242
172326
172413
172620
172610
172568
172550
172420
172329
172267
172370
172460
172545
172584
172584
172495
172398
172274
172306
172398
172503
172545
172631
172721
172695
172584
172507
172559
172462
172456
172577
172611
172654
172681
172714
172694
172615
172578
172478
172418
172574
172617
172731
172728
172738
172631
172490
172411
172379
172371
172448
172547
172702
172766
172765
172638
172510
172411
172340
172291
172385
172520
172592
172640
172716
172676
172570
172425
172372
172305
172436
172579
172676
172843
172735
172748
172771
172720
172634
172515
172629
172836
172888
172911
172887
172770
172633
172408
172283
172178
172132
172221
172249
172331
172329
172225
172194
172159
172125
172139
172295
172461
172683
172766
172683
172677
172610
172536
172484
172467
172596
172876
172969
172979
172894
172793
172812
172777
172694
172625
172673
172813
172902
172976
173002
172971
172935
172805
172706
172670
172799
173005
173092
173082
172967
172905
172986
172964
172901
172901
172946
173053
173145
173209
173176
173178
173025
172905
172847
172840
172997
173055
173105
173254
173207
173183
173091
173013
172917
172754
172819
172903
172896
173103
173167
173175
173000
172892
172955
172930
173021
173156
173103
173211
173233
173248
173178
173045
172990
172909
173012
173090
173161
173274
173232
173116
172937
172936
173011
173007
173052
173136
173105
173176
173100
173059
173070
173145
173150
173088
173139
173186
173143
173266
173275
173254
173091
173067
172952
172879
172982
173165
173112
173226
173330
173336
173238
173120
173050
173020
173043
173094
173250
173336
173371
173299
173111
172991
172987
173127
173220
173322
173351
173402
173357
173375
173295
173199
173079
173139
173185
173387
173424
173497
173490
173394
173330
173300
173218
173188
173238
173422
173425
173591
173508
173438
173408
173379
173231
173160
173306
173325
173408
173532
173569
173463
173315
173205
173105
173099
173230
173362
173390
173429
173377
173386
173365
173416
173244
173192
173224
173269
173338
173396
173401
173498
173401
173365
173297
173195
173164
173253
173363
173351
173458
173493
173383
173344
173189
173151
173211
173325
173446
173455
173424
173435
173347
173277
173241
173219
173253
173343
173394
173461
173493
173449
173468
173350
173206
173061
173218
173439
173463
173554
173525
173477
173372
173229
173257
173283
173317
173442
173509
173500
173463
173507
173414
173459
173418
173241
173174
173276
173412
173519
173595
173648
173582
173422
173269
173146
173231
173532
173661
173685
173736
173744
173599
173470
173382
173313
173376
173619
173688
173736
173778
173805
173611
173444
173401
173517
173518
173619
173689
173737
173734
173789
173673
173565
173486
173347
173390
173585
173686
173860
173834
173796
173649
173616
173553
173463
173501
173569
173571
173606
173675
173697
173612
173552
173470
173436
173472
173550
173651
173676
173652
173646
173506
173474
173476
173378
173492
173571
173677
173800
173758
173732
173664
173625
173473
173365
173421
173499
173559
173728
173837
173822
173738
173594
173583
173522
173575
173595
173622
173742
173855
173869
173782
173746
173629
173514
173552
173709
173795
173792
173897
173964
173879
173713
173614
173538
173556
173665
173698
173816
173920
174009
173926
173763
173663
173560
173557
173624
173698
173755
173800
173820
173823
173725
173709
173600
173648
173615
173687
173705
173765
173750
173733
173698
173644
173406
173400
173596
173792
173901
173950
173947
173851
173759
173692
173604
173547
173734
173875
173935
174007
174063
173964
173800
173673
173554
173690
173776
173880
173967
173997
174047
173989
173987
173969
173822
173842
173890
173996
173974
173991
174119
174094
173957
173953
173873
173913
173901
173981
174077
174090
174141
174044
173922
173807
173806
173764
173775
173938
174062
174149
174157
174097
173985
173913
173772
173815
173877
173955
174026
174180
174254
174164
174107
173888
173765
173872
174051
174139
174204
174298
174284
174216
174020
173860
173773
173878
174042
174122
174168
174178
174226
174127
173991
173964
173834
173911
174023
174106
174108
174101
174223
174174
174065
173936
173832
173932
173993
174045
174029
174111
174203
174176
174060
173949
173819
173845
173919
174007
174027
174133
174139
174087
173948
173815
173694
173709
173944
174100
174130
174209
174353
174319
174210
174135
173945
173913
173945
174077
174166
174204
174171
174013
173782
173625
173437
173360
173422
173445
173435
173576
173644
173788
173724
173771
173682
173686
173752
173868
173944
174102
174184
174150
174084
174040
173865
173813
173871
174019
174055
174193
174215
174185
174101
174036
173882
173876
173891
174008
174077
174068
174148
174170
174053
173852
173768
173789
173911
174096
174033
174045
174172
174169
174119
174066
173905
173827
173839
174028
174020
174068
174229
174203
174087
174077
173935
173885
173939
173983
174013
174047
174166
174220
174156
174057
173835
173788
173828
173899
174092
174171
174263
174201
174097
173979
173830
173776
173887
173989
174092
174180
174279
174230
174102
173950
173762
173645
173675
173854
174047
174228
174342
174270
174100
174013
173904
173919
173938
174002
174022
174082
174182
174176
174037
174024
173921
173881
173949
174105
174063
174060
174137
174225
174087
174006
173764
173725
173838
174142
174236
174156
174184
174144
174033
173892
173785
173695
173653
173760
173782
173955
174143
174199
173991
173826
173621
173583
173648
173763
173809
173857
173945
173997
173791
173631
173546
173575
173703
173817
173840
173829
173902
173954
173867
173812
173657
173622
173713
173803
173835
173783
173778
173859
173891
173974
173771
173698
173623
173709
173772
173863
174033
173973
173870
173837
173707
173640
173676
173792
173882
173886
173939
173940
173857
173771
173605
173589
173682
173879
173956
173933
173983
173939
173818
173727
173602
173490
173539
173754
173860
173924
174018
173955
173870
173805
173671
173594
173556
173615
173633
173697
173858
173861
173715
173756
173669
173530
173616
173692
173801
173783
173870
173858
173656
173602
173470
173451
173535
173673
173783
173880
173892
173825
173715
173683
173593
173547
173470
173537
173604
173688
173850
173946
173840
173735
173644
173620
173610
173687
173794
173823
173843
173901
173890
173790
173592
173529
173622
173816
173864
173862
173976
173977
173840
173671
173568
173591
173589
173680
173805
173810
173899
173933
173756
173617
173600
173665
173652
173721
173758
173746
173866
173925
173950
173861
173665
173538
173470
173583
173886
174015
174091
174005
173824
173720
173658
173648
173607
173711
173813
173847
173940
173972
173846
173751
173688
173630
173637
173713
173772
173835
173978
174057
173948
173829
173676
173642
173662
173776
173844
173829
173915
173981
173930
173847
173738
173730
173776
173794
173873
173898
174033
174124
174051
173927
173777
173760
173741
173752
173791
173929
174149
174225
174109
173979
173818
173736
173712
173825
173901
173975
174097
174115
174077
173995
173815
173696
173674
173811
173900
173943
174050
174076
174053
173962
173823
173800
173721
173772
173897
173978
174146
174207
174125
173944
173794
173689
173769
173856
173948
173986
174121
174139
174028
173842
173795
173775
173826
173848
173821
173872
174039
174008
173922
173863
173874
173886
173836
173843
173940
174019
174012
173911
173888
173820
173860
173888
173713
173766
173905
173880
173993
173995
173935
173864
173807
173778
173770
173737
173787
173784
173963
173991
173885
173843
173699
173612
173565
173676
173812
173814
173996
174053
173938
173766
173701
173680
173671
173671
173793
173815
173849
173920
173899
173783
173788
173715
173629
173648
173787
173809
173813
173921
174028
173863
173725
173649
173614
173728
173841
173822
173957
173953
173907
173828
173702
173635
173628
173677
173710
173736
173953
173989
173980
173838
173649
173666
173694
173769
173799
173794
173995
174202
174107
173966
173830
173762
173772
173935
174072
174166
174346
174342
174172
173948
173771
173747
173651
173602
173628
173501
173548
173544
173432
173298
173251
173220
173151
173210
173463
173585
173700
173862
173841
173668
173570
173467
173568
173683
173790
173778
173933
173993
173967
173862
173748
173664
173601
173642
173743
173790
173903
173921
173880
173833
173726
173656
173586
173740
173761
173673
173803
173943
173893
173764
173554
173553
173648
173777
173872
173789
173917
174034
174027
173886
173740
173738
173757
173824
173879
173875
173942
174043
174001
173945
173822
173700
173664
173750
173846
174068
174105
174139
174137
174067
173931
173833
173699
173621
173731
173891
174047
174170
174121
173972
173860
173852
173707
173693
173872
173928
173960
173989
173991
173924
173837
173812
173797
173822
173985
174016
174058
174060
174001
173842
173849
173908
173883
173757
173878
173873
173914
174006
174158
174136
173989
173962
173780
173743
173837
173834
173944
174073
174131
174015
173890
173869
173805
173840
173931
173895
173975
174019
174040
173941
173883
173825
173795
173803
173937
173987
174049
174113
174112
173973
173831
173773
173772
173767
173943
173927
173947
173983
174066
173980
173959
173920
173870
173837
173843
173858
174016
174102
174189
174129
174012
173971
173838
173848
173915
173955
173968
174135
174248
174185
174055
173919
173797
173919
174071
174092
174153
174224
174181
174030
173812
173718
173801
173948
174053
174075
174082
174181
174171
174069
173936
173879
173862
173832
173782
173872
174091
174172
174106
173995
173821
173800
173776
173871
173910
173891
173939
174006
174004
173935
173842
173778
173796
173806
173853
173916
173962
174069
174088
173986
173863
173849
173769
173649
173797
173936
174079
174199
174260
174226
174020
173917
173848
173877
173900
173982
174106
174229
174272
174198
174090
174010
173947
173914
173888
173926
174121
174197
174174
174212
174086
173923
173766
173778
173960
174063
174115
174111
174179
174171
173963
173905
173877
173870
173847
173867
173981
174151
174216
174012
173871
173800
173757
173717
173739
173800
173891
174036
174082
173946
173779
173722
173681
173617
173635
173757
173935
174008
174042
173918
173813
173755
173617
173612
173654
173705
173796
173935
173950
173858
173784
173776
173732
173662
173679
173623
173678
173863
173923
173912
173709
173603
173553
173574
173599
173631
173741
173812
173888
173807
173681
173611
173546
173500
173635
173735
173815
173903
173840
173698
173481
173477
173606
173693
173643
173643
173688
173774
173783
173706
173441
173432
173482
173454
173515
173548
173609
173679
173765
173763
173609
173512
173444
173355
173380
173416
173602
173698
173712
173591
173395
173332
173362
173403
173480
173609
173584
173696
173747
173706
173524
173446
173310
173267
173334
173435
173538
173664
173624
173593
173473
173470
173425
173297
173319
173411
173452
173634
173648
173650
173486
173385
173355
173335
173397
173476
173598
173651
173740
173661
173446
173375
173276
173282
173338
173577
173578
173664
173686
173620
173467
173415
173437
173287
173263
173305
173452
173673
173693
173671
173495
173443
173329
173316
173382
173459
173547
173622
173611
173546
173404
173412
173513
173424
173438
173503
173615
173692
173682
173656
173449
173515
173418
173459
173539
173598
173613
173714
173764
173734
173568
173470
173418
173367
173420
173563
173607
173772
173743
173673
173581
173524
173461
173385
173432
173552
173739
173755
173697
173651
173500
173582
173516
173445
173475
173542
173588
173646
173721
173626
173407
173385
173391
173499
173564
173532
173602
173674
173783
173804
173736
173695
173677
173623
173641
173705
173746
173757
173749
173685
173436
173337
173205
173071
172989
173002
172972
173108
173209
173166
173037
172959
172914
173047
173164
173337
173436
173481
173591
173666
173557
173492
173384
173309
173245
173292
173383
173403
173569
173704
173631
173606
173490
173349
173346
173421
173524
173566
173577
173523
173437
173435
173329
173315
173293
173376
173446
173532
173656
173616
173514
173414
173300
173227
173243
173458
173560
173615
173607
173579
173405
173308
173352
173335
173294
173304
173375
173450
173591
173606
173532
173548
173419
173195
173202
173283
173538
173669
173572
173561
173460
173437
173410
173288
173245
173304
173444
173576
173602
173551
173407
173341
173325
173310
173332
173368
173436
173510
173598
173658
173507
173335
173289
173191
173309
173358
173450
173549
173658
173639
173530
173551
173402
173324
173310
173358
173499
173541
173554
173530
173450
173464
173349
173253
173257
173329
173472
173496
173494
173538
173495
173441
173287
173199
173178
173248
173403
173355
173352
173445
173527
173460
173297
173145
173107
173220
173403
173459
173517
173489
173250
173123
173087
173085
173245
173222
173289
173387
173476
173485
173453
173345
173152
173011
172919
173011
173245
173451
173601
173558
173404
173306
173231
173099
173065
173051
173149
173239
173495
173473
173308
173223
173153
173079
173015
172996
173136
173229
173281
173392
173326
173293
173153
172999
172998
173038
173285
173351
173281
173307
173223
173138
173091
173005
172997
172959
173042
173073
173210
173283
173163
173105
172996
172904
172837
172767
172939
172970
173046
173095
173119
173098
173029
172873
172813
172819
172965
173043
173111
173149
173021
172986
172921
172786
172697
172772
172940
173088
173120
173042
172930
172881
172828
172768
172737
172726
172846
172897
173019
173010
172939
172945
172906
172872
172863
172783
172846
172861
172965
172952
172821
172743
172790
172920
173052
172939
172946
173010
173073
173080
172999
172852
172785
172741
172700
172785
172999
172997
173041
173012
172976
172914
172869
172830
172806
172805
172897
172989
173069
173032
173045
172909
172863
172782
172742
172833
173117
173122
173113
173047
172939
172899
172988
172939
172867
172868
172992
173107
173218
173217
173181
173074
172986
172872
172818
172859
173069
173193
173176
173158
173119
173142
173055
172911
172972
172982
173150
173171
173153
173207
173206
173126
173083
172973
172938
173035
173137
173127
173236
173278
173199
173087
173000
172940
172994
172926
173010
173105
173146
173242
173250
173161
173148
172984
172817
172819
173042
173191
173160
173199
173163
173029
173010
172850
172744
172732
172872
173010
173082
173199
173144
172954
172885
172801
172811
172716
172852
172897
172944
173008
173002
172901
172867
172805
172770
172771
172836
172909
173024
173161
173159
173024
172967
172804
172718
172737
172878
172972
173038
173140
173034
172874
172791
172708
172628
172667
172791
172959
173066
173141
173062
172958
172998
172916
172872
172804
172959
172969
172989
173000
173061
173032
173062
172912
172843
172794
172974
173023
173053
173132
173091
172982
172864
172771
172733
172681
172805
172858
172943
173110
173127
172948
172854
172832
172716
172576
172639
172782
172962
173089
173022
172993
173017
173002
172821
172717
172834
172892
172931
173002
173058
173030
172924
172796
172732
172694
172820
172952
173060
173188
173162
173127
172975
172866
172839
172964
173093
173147
173294
173423
173343
173129
172939
172930
172971
173005
173107
173111
173033
172999
172871
172692
172563
172451
172362
172355
172504
172576
172703
172798
172751
172708
172631
172606
172751
172694
172767
172911
173022
173072
173007
172906
172789
172749
172717
172669
172782
172822
172809
172862
172959
172887
172766
172636
172570
172581
172652
172711
172779
172872
172916
172923
172850
172679
172614
172569
172641
172653
172726
172785
172768
172789
172714
172618
172589
172564
172707
172804
172774
172780
172750
172763
172839
172698
172610
172512
172621
172794
172933
172996
172922
172800
172749
172686
172670
172648
172758
172801
172832
172847
172767
172817
172820
172810
172675
172542
172629
172784
172905
172971
172856
172782
172623
172536
172585
172622
172645
172769
172861
173008
172934
172813
172802
172835
172720
172634
172751
172855
172914
173010
172930
172847
172798
172734
172700
172797
172854
172893
172909
172961
172899
172872
172765
172770
172822
172742
172735
172722
172747
172873
172887
172918
172820
172791
172655
172536
172618
172759
172769
172847
172860
172814
172708
172632
172540
172499
172622
172651
172697
172818
172958
172860
172636
172463
172386
172441
172649
172737
172814
172829
172749
172779
172632
172575
172407
172386
172485
172568
172678
172897
172958
172810
172671
172608
172556
172460
172509
172605
172630
172785
172797
172785
172754
172657
172539
172458
172572
172694
172778
172867
172845
172792
172661
172540
172496
172533
172555
172578
172698
173049
173082
172973
172837
172739
172626
172617
172694
172761
172787
172793
172710
172709
172682
172643
172571
172482
172601
172721
172721
172759
172839
172778
172601
172631
172516
172408
172496
172713
172760
172838
172846
172836
172712
172672
172588
172387
172451
172585
172622
172710
172794
172864
172851
172807
172617
172523
172554
172651
172687
172760
172788
172854
172823
172682
172561
172454
172540
172601
172765
172864
172805
172764
172628
172676
172591
172413
172322
172539
172797
172936
172819
172751
172654
172618
172525
172402
172457
172638
172721
172802
172744
172740
172622
172561
172462
172351
172497
172625
172679
172710
172677
172684
172591
172520
172436
172331
172372
172555
172610
172646
172572
172716
172673
172631
172481
172389
172377
172445
172522
172564
172711
172727
172624
172541
172406
172314
172278
172435
172506
172556
172608
172586
172480
172368
172460
172335
172312
172429
172513
172536
172661
172671
172577
172457
172321
172227
172265
172503
172527
172608
172568
172554
172441
172334
172231
172070
172129
172246
172299
172351
172415
172464
172444
172393
172206
172052
172102
172275
172407
172467
172369
172365
172234
172175
172133
171978
172128
172209
172271
172394
172373
172354
172263
172165
172205
172165
172122
172125
172116
172181
172237
172319
172366
172158
172077
172012
172030
172103
172136
172190
172246
172304
172222
172132
172113
171994
171962
172061
172202
172333
172272
172281
172296
172188
172108
171945
171958
172007
172085
172188
172290
172372
172260
172127
172043
171916
171893
171949
172036
172167
172229
172299
172137
172119
172101
171977
171901
171986
172051
172053
172085
172115
172053
172068
172107
172080
171958
172002
172055
172030
172169
172245
172158
172131
171975
171868
171857
171923
172004
172083
172115
172117
172151
172077
171999
171892
171918
171956
171993
172044
172090
172148
172104
172000
172022
171846
171780
171880
171927
172052
172185
172212
172091
172069
171977
171857
171802
171890
172035
172081
172108
172139
172049
171937
171944
171853
171886
171884
172040
172196
172355
172409
172339
172222
172108
171937
171910
172046
172161
172152
172048
172108
172042
171848
171662
171389
171307
171382
171466
171594
171639
171661
171656
171592
171572
171453
171527
171648
171743
171920
172092
172148
172086
171924
171849
171711
171768
171871
171981
171927
171928
172018
172053
171900
171852
171748
171727
171785
171880
171943
172001
172031
171963
171843
171734
171694
171722
171833
172022
172042
171988
171931
171954
171862
171800
171713
171737
171708
171789
171933
172041
172126
172076
172040
171900
171742
171749
171756
171832
171879
172006
172110
172040
171853
171735
171682
171768
171858
171937
172016
171975
172038
172030
171909
171812
171665
171611
171707
171920
172016
172077
172109
172047
171829
171756
171678
171680
171764
171884
171939
171925
171890
171905
171905
171787
171712
171728
171762
171877
171942
171925
171953
171894
171774
171770
171648
171593
171729
171878
171978
171967
171935
171986
171880
171801
171677
171635
171649
171721
171771
171844
171930
171832
171789
171755
171624
171637
171674
171734
171742
171783
171832
171827
171822
171814
171616
171610
171584
171703
171812
171890
171938
171935
171783
171647
171507
171549
171623
171769
171819
171849
172001
171937
171793
171723
171574
171557
171575
171675
171696
171667
171802
171831
171731
171640
171541
171594
171725
171802
171785
171787
171821
171835
171747
171606
171492
171523
171538
171600
171679
171817
171968
171924
171794
171754
171624
171606
171629
171712
171744
171754
171828
171817
171698
171524
171406
171405
171587
171808
171856
171867
171913
171833
171733
171635
171521
171505
171557
171628
171620
171693
171714
171760
171815
171785
171669
171580
171592
171685
171681
171716
171855
171878
171787
171671
171485
171428
171419
171481
171801
171966
172048
172042
171874
171735
171641
171571
171603
171710
171754
171849
171943
171938
171875
171840
171691
171619
171631
171710
171782
171736
171826
171892
171766
171688
171576
171522
171467
171578
171701
171699
171782
171755
171681
171686
171586
171584
171575
171648
171643
171617
171677
171728
171650
171636
171603
171530
171463
171544
171617
171594
171695
171693
171623
171553
171475
171369
171297
171419
171621
171777
171785
171790
171675
171512
171410
171391
171635
171674
171717
171755
171790
171788
171664
171556
171516
171497
171548
171597
171690
171735
171789
171801
171728
171578
171435
171428
171413
171497
171648
171747
171830
171806
171673
171602
171511
171459
171328
171526
171814
171883
171887
171858
171758
171682
171552
171529
171474
171504
171568
171651
171700
171622
171674
171683
171572
171482
171410
171451
171547
171565
171757
171891
171830
171673
171540
171470
171394
171456
171539
171584
171638
171673
171524
171558
171513
171501
171549
171601
171636
171606
171790
171812
171717
171600
171422
171398
171328
171451
171583
171656
171716
171777
171707
171550
171498
171506
171488
171464
171471
171480
171560
171577
171638
171605
171624
171618
171446
171439
171515
171571
171846
171922
171875
171661
171472
171456
171414
171461
171548
171501
171649
171814
171847
171703
171575
171480
171455
171499
171614
171654
171761
171740
171633
171525
171388
171280
171368
171437
171705
171748
171745
171756
171665
171548
171460
171419
171384
171397
171574
171584
171641
171656
171596
171491
171381
171274
171216
171284
171448
171497
171545
171614
171589
171422
171362
171365
171381
171526
171499
171503
171678
171690
171652
171462
171336
171307
171414
171428
171514
171563
171636
171623
171705
171606
171527
171370
171283
171328
171456
171531
171752
171860
171756
171612
171493
171488
171578
171776
171886
171805
171916
171935
171925
171777
171548
171389
171262
171267
171268
171178
171240
171225
171177
171106
171037
171015
170997
171021
171127
171197
171346
171420
171381
171299
171212
171201
171349
171437
171524
171529
171625
171672
171592
171433
171365
171373
171331
171312
171251
171298
171564
171661
171680
171499
171475
171444
171388
171353
171386
171471
171627
171690
171569
171417
171322
171288
171368
171426
171458
171509
171629
171679
171611
171459
171388
171404
171276
171272
171414
171416
171551
171596
171618
171522
171368
171315
171261
171248
171465
171492
171510
171496
171442
171278
171165
171321
171287
171255
171336
171410
171501
171545
171444
171314
171212
171224
171220
171101
171269
171441
171522
171560
171512
171375
171244
171266
171166
171217
171328
171310
171318
171483
171579
171571
171506
171466
171330
171281
171388
171392
171451
171492
171442
171393
171357
171433
171386
171314
171343
171484
171594
171563
171566
171409
171283
171215
171238
171240
171278
171316
171381
171482
171462
171343
171269
171313
171227
171211
171307
171305
171392
171403
171459
171351
171202
171161
171026
171031
171153
171182
171321
171438
171500
171521
171331
171200
171179
171197
171241
171220
171268
171393
171510
171478
171323
171191
171162
171186
171243
171263
171454
171566
171514
171457
171331
171241
171163
171142
171247
171266
171390
171521
171455
171463
171357
171282
171211
171140
171193
171213
171287
171387
171408
171377
171375
171383
171239
171140
171217
171237
171344
171386
171417
171371
171293
171212
171151
171110
171195
171275
171338
171417
171392
171298
171174
171180
171029
171025
171094
171110
171189
171280
171314
171267
171160
171113
170990
171006
171068
171110
171151
171397
171469
171385
171152
171057
170906
170933
171088
171287
171386
171395
171356
171300
171177
171177
171041
170972
171046
171147
171195
171316
171327
171283
171139
171083
171008
170941
170948
171144
171342
171471
171477
171329
171128
171019
170961
170953
171027
171040
171072
171195
171375
171270
171121
171031
170911
170872
170966
171018
171088
171123
171093
171073
171056
171021
170914
170852
170910
170951
170978
171105
171218
171095
170899
170860
170850
170808
170804
170841
170978
171150
171188
171108
170972
170989
170809
170704
170685
170803
170909
171122
171316
171230
171031
170957
170886
170799
170829
170900
170982
171056
171056
170949
170819
170899
170957
170926
170871
170835
170992
171139
171259
171171
170924
170989
170939
170904
170862
170897
171014
171098
171252
171188
170951
170915
170799
170793
170894
171001
171092
171216
171209
171111
170952
170920
170796
170741
170887
171005
171117
171225
171185
171013
170914
171052
170899
170815
170934
171011
171011
171047
171137
171157
170898
170899
170939
170888
170871
170842
170967
171056
171033
171006
170853
170809
170775
170739
170871
170904
170955
171020
171086
171095
171029
170926
170819
170746
170751
170732
170863
170971
171056
171013
170922
170819
170652
170668
170704
170808
170813
170811
170806
170853
170881
170926
170800
170652
170600
170803
170865
170851
170871
170808
170689
170692
170549
170591
170654
170681
170707
170780
170820
170770
170676
170685
170607
170515
170500
170602
170667
170690
170744
170826
170652
170701
170701
170563
170518
170500
170555
170739
170826
170898
170826
170702
170606
170515
170503
170600
170769
170800
170877
170907
170790
170738
170763
170789
170754
170812
170895
170978
171021
170909
170670
170591
170506
170522
170546
170563
170653
170610
170495
170421
170257
170133
170159
170132
170056
170062
170200
170316
170482
170674
170746
170616
170504
170411
170387
170428
170517
170684
170831
170844
170643
170578
170531
170440
170445
170549
170687
170774
170803
170831
170657
170536
170450
170408
170374
170404
170564
170635
170697
170677
170615
170515
170510
170412
170340
170453
170566
170571
170595
170709
170568
170496
170448
170322
170375
170490
170688
170686
170694
170603
170500
170524
170466
170351
170300
170339
170518
170614
170650
170598
170485
170400
170336
170288
170259
170319
170468
170629
170623
170533
170425
170268
170267
170292
170336
170366
170474
170476
170552
170548
170438
170445
170346
170277
170188
170293
170468
170417
170535
170472
170462
170542
170412
170331
170254
170236
170397
170542
170626
170592
170388
170217
170130
170177
170314
170419
170533
170473
170512
170519
170399
170348
170301
170112
169990
170016
170213
170392
170523
170586
170377
170310
170210
170137
170103
170142
170272
170356
170347
170380
170270
170212
170211
170105
170014
170013
170147
170357
170411
170396
170333
170314
170240
170069
170085
170082
170197
170231
170243
170242
170364
170460
170338
170223
170134
170122
170219
170330
170426
170360
170239
170191
170346
170310
170289
170314
170327
170355
170410
170419
170277
170208
170184
170139
170119
170028
170177
170288
170471
170441
170306
170255
170267
170160
170139
170100
170213
170274
170369
170328
170148
170102
170217
170140
170035
169967
170106
170154
170343
170391
170260
170179
170147
170038
169988
169961
170072
170086
170139
170168
170226
170139
170192
170137
170029
169939
170062
170077
170112
170192
170190
170149
170120
170064
170065
169995
170128
170106
170133
170250
170205
170096
170205
170105
170001
169947
170077
170145
170312
170437
170349
170216
170134
170021
169949
169953
170055
170110
170202
170343
170257
170063
169962
169886
169812
169888
170104
170112
170133
170202
170210
170185
170046
169918
169874
169836
169982
170032
170111
170184
170213
170151
170056
169955
169936
169933
170013
170024
170076
170141
170074
170025
170000
169893
169797
169767
169854
169968
170112
170160
170107
170043
169955
169800
169733
169706
169908
170044
170091
170087
170060
169989
170015
170049
169922
169845
169924
169911
170006
170105
170079
169991
170111
170128
169999
169926
170067
170161
170243
170316
170210
170108
170067
169932
169830
169817
169992
170103
170140
170139
170163
170189
170127
170126
170026
169941
170010
170071
170173
170227
170223
170155
170084
170027
169850
169819
169907
170000
170246
170346
170255
170079
169982
169989
169984
169890
170022
170074
170154
170285
170214
170184
170087
169928
169878
169778
169949
170021
170093
170104
170176
170113
169958
169842
169832
169844
169978
170062
170075
170132
170150
170098
169977
169994
169905
169796
169888
169955
169992
170054
169974
169994
169983
169927
169808
169721
169897
170030
170037
170077
170083
170029
169821
169694
169565
169646
170077
170057
170022
170049
169982
169909
169866
169791
169708
169656
169807
169951
169962
169960
169928
169850
169778
169779
169776
169704
169794
169763
169879
169966
169930
169857
169788
169729
169643
169608
169643
169737
169827
170016
170165
170040
169924
169882
169743
169593
169665
169832
169939
170052
170056
169957
169837
169752
169612
169562
169687
169795
169868
169924
169908
169908
169851
169754
169624
169511
169609
169749
170003
170099
169921
169776
169640
169645
169625
169617
169674
169773
169794
169790
169672
169777
169878
169807
169750
169634
169657
169787
169882
169914
169908
169881
169712
169580
169652
169780
169904
170045
170070
170153
170091
170018
169861
169644
169469
169440
169482
169569
169542
169536
169414
169367
169277
169213
169132
169172
169239
169348
169445
169568
169559
169608
169651
169593
169471
169385
169424
169651
169708
169840
169904
169874
169710
169581
169406
169319
169444
169651
169796
169846
169840
169820
169693
169621
169505
169462
169494
169585
169590
169697
169724
169750
169667
169592
169447
169346
169505
169655
169637
169738
169803
169821
169675
169627
169432
169346
169358
169526
169583
169658
169783
169819
169781
169712
169506
169430
169486
169523
169575
169603
169550
169570
169569
169566
169579
169513
169489
169470
169503
169631
169768
169737
169638
169510
169417
169362
169370
169514
169537
169589
169579
169649
169644
169525
169475
169345
169353
169485
169604
169700
169722
169627
169489
169383
169490
169520
169496
169570
169631
169721
169772
169681
169597
169555
169435
169306
169345
169512
169555
169720
169736
169691
169600
169570
169426
169302
169341
169466
169530
169541
169559
169512
169461
169448
169393
169277
169326
169475
169591
169661
169576
169520
169348
169332
169232
169138
169281
169471
169504
169555
169681
169654
169545
169415
169255
169195
169269
169398
169446
169437
169483
169488
169394
169390
169263
169166
169219
169314
169351
169405
169448
169450
169341
169226
169162
169045
169174
169387
169436
169432
169407
169348
169230
169160
169108
169028
169046
169192
169366
169381
169365
169365
169258
169131
169095
169042
169075
169114
169104
169196
169193
169297
169247
169136
169036
168929
168933
168920
168970
169119
169146
169247
169152
169023
168914
168807
168862
169029
169103
169155
169192
169193
169063
168920
168834
168714
168723
168850
169000
169022
169042
169061
168973
168841
168803
168710
168714
168825
168888
168871
168943
168916
168845
168907
168920
168721
168596
168628
168774
168914
168975
169017
168857
168669
168525
168491
168557
168665
168791
168792
168885
168900
168772
168735
168650
168480
168498
168563
168621
168717
168776
168780
168678
168478
168565
168581
168519
168577
168614
168588
168548
168619
168678
168696
168651
168501
168420
168501
168571
168572
168681
168769
168780
168625
168527
168402
168346
168456
168563
168701
168657
168576
168513
168544
168680
168481
168341
168409
168537
168647
168628
168619
168571
168461
168393
168350
168435
168482
168511
168484
168585
168620
168594
168518
168475
168331
168314
168350
168436
168540
168533
168517
168492
168475
168466
168351
168371
168389
168441
168547
168562
168612
168634
168485
168363
168270
168254
168280
168368
168391
168438
168585
168590
168367
168317
168253
168297
168376
168432
168425
168457
168482
168533
168492
168426
168293
168309
168315
168387
168442
168519
168552
168504
168399
168379
168269
168192
168216
168402
168457
168414
168543
168527
168496
168471
168288
168257
168306
168376
168449
168482
168485
168466
168321
168354
168279
168374
168363
168441
168481
168464
168552
168498
168376
168282
168120
168192
168268
168453
168485
168578
168565
168474
168346
168275
168132
168205
168338
168376
168288
168325
168441
168465
168407
168310
168216
168209
168256
168280
168339
168423
168452
168352
168233
168234
168125
168126
168106
168166
168341
168438
168487
168481
168320
168224
168026
168082
168191
168358
168302
168324
168410
168367
168231
168167
168062
168055
168186
168318
168412
168425
168416
168398
168360
168288
168164
168127
168210
168320
168282
168368
168471
168628
168648
168600
168451
168316
168302
168346
168329
168291
168254
168190
168032
167859
167707
167674
167632
167674
167773
167993
168031
167970
167937
167912
167868
167896
167869
167942
168001
168180
168343
168337
168160
168072
167928
167991
168077
168052
168080
168110
168208
168213
168116
168014
167919
167933
167996
168095
168152
168225
168271
168224
168063
167976
167857
167939
167941
167988
168034
168132
168218
168203
168140
168131
167920
167825
167822
167979
168127
168126
168334
168299
168148
167946
167843
167847
167820
168005
168100
168048
168155
168123
168011
167909
167839
167806
167830
167941
167986
168131
168191
168153
168068
168038
167889
167820
167870
167880
167996
168121
168193
168126
167995
167911
167853
167844
167855
167970
168004
167985
168062
168084
167992
167959
167840
167771
167827
168025
168105
168145
168192
168139
168050
168002
167931
167900
167922
167992
167987
168000
168090
168168
168083
167913
167812
167873
167854
167989
168054
168069
168134
168135
168019
167889
167760
167742
167786
167886
168020
168012
168124
168185
168037
167881
167761
167781
167806
167878
167941
167970
168048
168090
168056
167868
167703
167698
167840
167939
167925
167835
167864
167915
167930
167911
167772
167776
167849
167932
167926
167902
167950
167976
168009
167925
167787
167758
167754
167795
167850
167799
167899
167967
167953
167888
167788
167720
167718
167826
167822
167822
167923
167899
167856
167780
167713
167672
167692
167747
167847
167793
167844
167828
167819
167791
167646
167595
167542
167616
167726
167768
167839
167892
167819
167755
167632
167590
167575
167620
167704
167694
167855
167863
167790
167590
167474
167466
167575
167535
167606
167782
167883
167955
167862
167719
167550
167522
167603
167600
167593
167628
167757
167779
167691
167586
167518
167561
167526
167608
167720
167640
167783
167808
167643
167561
167455
167431
167404
167484
167529
167526
167638
167736
167757
167634
167535
167514
167509
167536
167596
167573
167651
167737
167638
167498
167342
167388
167467
167520
167544
167533
167682
167723
167602
167526
167416
167368
167353
167405
167558
167624
167675
167554
167473
167407
167323
167331
167251
167327
167485
167494
167596
167709
167560
167423
167274
167222
167284
167367
167359
167329
167365
167546
167558
167465
167368
167290
167138
167255
167454
167461
167526
167538
167499
167400
167315
167233
167146
167160
167313
167408
167515
167517
167469
167284
167316
167255
167236
167180
167337
167418
167486
167481
167418
167303
167276
167217
167157
167137
167245
167407
167545
167578
167525
167353
167160
167136
167127
167195
167361
167310
167429
167445
167389
167281
167121
167085
167101
167241
167319
167264
167277
167349
167398
167373
167288
167134
167122
167163
167242
167284
167365
167381
167312
167208
167200
167192
167125
167114
167147
167136
167241
167227
167290
167294
167236
167078
167096
167041
167128
167200
167378
167346
167283
167137
167052
166936
166979
166966
167072
167097
167262
167305
167295
167170
167107
167029
166940
166930
167056
167102
167178
167301
167356
167187
167062
166987
166930
166970
167107
167136
167216
167299
167287
167226
167070
167076
167035
166992
167149
167201
167204
167227
167335
167211
167140
167052
166986
167017
167069
167082
167220
167278
167344
167235
167128
167001
166901
166835
167069
167157
167258
167300
167259
167174
167046
166931
166882
166874
167041
167110
167196
167274
167282
167166
167018
166929
166825
166792
166982
167112
167152
167206
167213
167146
166989
166922
166899
166906
166909
166930
167004
167084
167140
167093
167053
166961
166884
166884
167052
167099
167284
167404
167435
167368
167217
167227
167176
167187
167176
167241
167278
167261
167171
167040
166912
166783
166530
166502
166582
166671
166692
166780
166858
166796
166634
166494
166533
166601
166749
166934
166964
167037
167047
167022
166980
167003
166922
166948
166941
166966
167098
167203
167205
167132
167035
166942
166771
166730
166815
166966
167184
167255
167138
167074
167039
166912
166813
166816
166876
166929
167095
167208
167197
167102
166943
166891
166932
167066
167130
167036
167115
167209
167215
167170
166970
166877
166823
166861
166934
167010
167089
167171
167243
167232
167046
166941
166852
166842
166940
166999
167105
167169
167200
167163
166998
166912
166718
166766
166879
167034
167201
167324
167246
167080
166874
166912
166968
167066
167090
167042
167204
167263
167195
167107
166988
167054
166966
166952
167035
167091
167176
167185
167179
167115
167082
167136
167047
167079
167099
167144
167195
167284
167265
167208
167018
166900
166798
166838
167089
167328
167348
167356
167280
167156
167112
167122
167010
166973
167010
167168
167139
167208
167241
167311
167196
167169
167042
167059
167036
167050
167102
167248
167349
167278
167030
167068
167172
167307
167197
167103
167236
167381
167442
167416
167250
167187
167078
167039
167124
167112
167201
167338
167497
167480
167280
167237
167181
167193
167186
167204
167281
167457
167409
167402
167308
167179
167085
167181
167233
167280
167288
167334
167373
167392
167342
167362
167233
167203
167225
167219
167254
167357
167471
167528
167416
167343
167189
167071
167118
167185
167294
167370
167422
167528
167419
167341
167218
167126
167156
167306
167364
167475
167486
167507
167273
167191
167101
167225
167369
167388
167463
167539
167552
167496
167373
167366
167306
167272
167300
167366
167468
167577
167610
167579
167378
167400
167358
167393
167414
167470
167544
167627
167618
167548
167408
167455
167416
167457
167472
167541
167596
167599
167653
167603
167457
167496
167433
167364
167402
167536
167638
167717
167803
167699
167481
167382
167420
167472
167481
167543
167607
167612
167591
167633
167566
167609
167478
167336
167312
167429
167563
167717
167789
167742
167507
167469
167423
167422
167469
167474
167482
167479
167544
167758
167586
167463
167473
167386
167365
167467
167607
167723
167785
167725
167624
167505
167400
167379
167387
167461
167547
167667
167762
167700
167625
167585
167492
167498
167460
167493
167627
167700
167728
167745
167638
167502
167436
167473
167517
167589
167720
167716
167782
167792
167592
167510
167468
167463
167481
167565
167731
167762
167745
167707
167589
167582
167556
167465
167471
167495
167651
167705
167775
167718
167644
167607
167569
167536
167495
167517
167629
167681
167739
167754
167744
167656
167532
167501
167463
167428
167596
167705
167901
167809
167680
167686
167572
167396
167339
167416
167723
167819
167896
167854
167675
167532
167488
167469
167450
167591
167763
167765
167833
167887
167734
167698
167587
167527
167550
167519
167743
167847
167872
167837
167772
167802
167707
167566
167616
167587
167684
167898
167902
167918
167896
167723
167635
167607
167638
167652
167757
167781
167841
167940
167851
167857
167758
167607
167567
167577
167776
167939
167955
168032
167972
167871
167799
167633
167589
167607
167651
167806
167958
168040
167976
167877
167798
167662
167622
167595
167751
167890
167970
167984
167874
167801
167764
167717
167709
167703
167933
168020
168094
168037
167990
167981
167973
167906
167882
167828
168037
168165
168260
168289
168137
168014
167922
167680
167621
167565
167665
167672
167600
167562
167493
167487
167465
167368
167307
167369
167560
167661
167795
167951
167910
167848
167791
167740
167701
167705
167796
167949
168143
168231
168111
167970
167891
167771
167745
167777
167919
168005
168121
168193
168073
167878
167830
167802
167843
167787
167803
167913
168035
168150
168160
167969
167929
167794
167745
167793
167905
167984
168015
168148
168092
167988
167932
167871
167791
167876
168007
168128
168202
168208
168114
168010
167965
167849
167825
167780
167864
167889
168065
168185
168153
168128
168041
167900
167832
167774
167819
167863
168047
168126
168180
168130
167962
167834
167857
167823
167893
167987
168113
168186
168061
167937
167874
167780
167767
167868
168028
168079
168140
168191
168141
168010
167938
167837
167708
167720
167993
168193
168169
168196
168125
168111
168046
167896
167786
167787
167926
167952
168090
168113
168131
168063
167968
167904
167858
167801
167903
167919
167898
167956
168040
167960
167840
167786
167785
167738
167848
167860
167970
168059
167973
167929
167850
167727
167595
167641
167836
167855
167877
167960
167930
167856
167671
167568
167602
167665
167795
167977
168038
168005
167887
167804
167726
167693
167604
167605
167694
167836
167912
167942
167887
167974
167841
167747
167677
167566
167703
167799
167851
167921
167890
168019
167885
167688
167619
167549
167680
167802
167927
168037
167996
167951
167803
167696
167612
167608
167829
167889
167956
167903
167882
167824
167732
167672
167577
167442
167562
167681
167807
167838
167810
167759
167751
167633
167570
167449
167572
167659
167719
167876
167865
167729
167591
167597
167513
167473
167565
167606
167670
167746
167751
167717
167620
167580
167509
167408
167497
167596
167711
167792
167715
167644
167628
167481
167353
167430
167612
167775
167817
167799
167812
167736
167635
167568
167450
167357
167530
167647
167703
167822
167678
167723
167682
167602
167529
167414
167522
167626
167704
167752
167686
167698
167536
167380
167242
167330
167602
167621
167667
167810
167744
167600
167442
167371
167320
167272
167459
167626
167649
167711
167689
167651
167440
167337
167227
167261
167494
167603
167539
167563
167567
167632
167523
167342
167211
167179
167341
167496
167510
167563
167557
167493
167434
167475
167391
167249
167312
167381
167443
167550
167591
167532
167419
167356
167273
167264
167379
167447
167495
167525
167567
167554
167397
167399
167293
167286
167335
167345
167403
167544
167534
167609
167517
167451
167306
167224
167308
167451
167451
167517
167514
167474
167529
167571
167365
167219
167320
167412
167432
167573
167603
167591
167523
167368
167244
167247
167345
167451
167496
167537
167527
167520
167409
167306
167252
167280
167368
167490
167518
167503
167515
167483
167327
167243
167198
167177
167320
167427
167455
167618
167608
167466
167289
167257
167199
167263
167307
167407
167493
167588
167592
167565
167408
167308
167204
167040
167072
167223
167381
167559
167530
167495
167481
167439
167320
167194
167254
167369
167399
167458
167414
167360
167290
167208
167252
167192
167281
167388
167380
167380
167306
167310
167370
167374
167276
167181
167205
167330
167320
167365
167392
167348
167261
167202
167172
167041
167159
167320
167347
167437
167455
167380
167163
167170
167160
167150
167105
167204
167302
167357
167381
167358
167241
167196
167186
167087
167061
167132
167220
167287
167275
167288
167214
167076
166981
166917
166974
167096
167179
167290
167259
167214
167082
167051
167024
166884
166902
166962
167041
167175
167261
167315
167219
167100
167066
166975
166973
167084
167184
167358
167362
167389
167280
167256
167202
167118
167237
167340
167461
167593
167537
167475
167307
167190
167012
166868
166897
166937
166949
166911
166884
166908
166821
166739
166668
166568
166509
166771
166912
167096
167207
167272
167181
167089
167023
166856
166887
167022
167181
167328
167389
167418
167237
167131
167056
166998
166980
167135
167231
167275
167303
167307
167155
167035
167021
166899
166886
167083
167210
167258
167302
167291
167250
167174
167045
166924
167005
167037
167060
167190
167208
167242
167130
167118
167020
166942
166973
167016
167106
167183
167222
167214
167055
167029
166989
166840
166927
166945
167007
167059
167052
167063
166988
167035
167047
166906
166826
166913
167028
167066
167038
167063
166962
166834
166864
166730
166767
166880
167043
167052
167076
167143
167072
166912
166763
166699
166721
166933
166981
167024
167131
167114
166932
166838
166793
166805
166837
166841
166883
166895
166977
167094
167011
166870
166726
166653
166608
166821
166966
167022
167020
166969
166885
166764
166803
166735
166642
166767
166874
166962
166909
166957
166845
166795
166818
166680
166716
166734
166772
166765
166811
167009
166834
166690
166613
166646
166752
166760
166896
167042
167017
166995
166863
166780
166697
166533
166439
166483
166787
166955
167098
167051
166903
166752
166737
166586
166534
166583
166704
166864
166961
166866
166741
166648
166591
166553
166655
166675
166730
166729
166759
166821
166864
166804
166683
166505
166501
166516
166711
166802
166841
166865
166763
166591
166526
166398
166502
166784
166846
166763
166705
166734
166791
166684
166695
166601
166529
166537
166596
166625
166744
166784
166720
166638
166574
166395
166450
166515
166647
166630
166700
166773
166690
166543
166475
166306
166280
166398
166590
166652
166651
166746
166683
166464
166338
166207
166290
166318
166471
166579
166546
166470
166441
166435
166497
166341
166240
166295
166385
166487
166497
166548
166498
166423
166408
166231
166204
166130
166180
166307
166440
166645
166602
166492
166374
166184
166093
166073
166218
166435
166598
166737
166578
166387
166311
166219
166192
166216
166321
166396
166339
166326
166424
166411
166409
166263
166232
166253
166336
166357
166394
166472
166362
166222
166238
166138
166102
166148
166265
166315
166406
166402
166406
166321
166350
166174
166161
166120
166211
166296
166322
166407
166408
166183
166152
166091
166076
166057
166122
166141
166252
166397
166430
166242
166080
165980
166028
166106
166261
166328
166359
166422
166364
166230
166136
166053
166194
166203
166276
166303
166286
166348
166349
166201
166075
165998
166081
166150
166188
166172
166161
166283
166432
166327
166187
166081
166009
165942
166085
166210
166207
166299
166375
166279
166187
166086
166055
166056
166107
166180
166205
166289
166252
166138
166036
165940
166046
165974
166018
166103
166196
166321
166357
166208
166032
165879
165958
166018
166074
166160
166184
166313
166241
166141
166072
165843
165753
165893
166131
166125
166171
166243
166290
166210
166059
165954
165881
165883
165862
165934
166004
166134
166210
166126
166080
166001
165921
165887
165979
166067
166087
166163
166236
166139
165979
165802
165822
165852
165942
166045
166045
166062
166124
166080
166096
166026
165911
165876
165933
165990
166039
166175
166106
165973
165894
165833
165889
165918
165902
165998
166068
166156
166187
166058
165920
165826
165737
165754
165821
165977
166008
166018
165955
165882
165809
165726
165618
165655
165836
165938
165964
165967
165895
165807
165779
165690
165608
165660
165685
165829
165767
165836
165855
165825
165760
165705
165619
165574
165647
165747
165805
165850
165868
165781
165782
165619
165569
165551
165696
165941
165999
166060
166013
165973
165878
165713
165540
165462
165534
165637
165675
165737
165665
165392
165189
164977
164949
164974
165095
165219
165203
165314
165425
165356
165271
165219
165188
165246
165278
165416
165484
165594
165662
165607
165527
165407
165317
165238
165247
165458
165613
165650
165689
165602
165435
165396
165351
165252
165314
165386
165432
165530
165748
165703
165509
165392
165328
165278
165278
165423
165440
165531
165589
165575
165451
165325
165288
165290
165215
165315
165464
165650
165712
165670
165490
165322
165252
165211
165314
165431
165421
165551
165658
165551
165426
165367
165295
165244
165327
165414
165456
165564
165608
165487
165370
165347
165290
165147
165178
165254
165251
165359
165477
165382
165238
165293
165443
165341
165311
165351
165350
165514
165512
165457
165294
165232
165305
165187
165130
165286
165338
165487
165532
165471
165361
165253
165172
165059
165126
165235
165219
165384
165493
165378
165243
165040
164968
165039
165023
165251
165364
165387
165450
165247
165203
165113
165151
165074
164967
165044
165119
165252
165389
165315
165142
165091
165116
165052
165030
165134
165051
165103
165165
165236
165199
165091
164983
164951
165004
165077
165044
165155
165258
165208
165009
164922
164841
164758
164826
164854
165058
165261
165232
165156
165024
164966
164985
164906
164677
163876
163865
164245
164510
164610
164586
164552
164483
164442
164523
164647
164649
164769
164788
164732
164674
164581
164584
164442
164376
164465
164602
164909
165000
164949
164810
164641
164583
164486
164457
164639
164819
164848
164751
164669
164514
164459
164505
164516
164519
164535
164578
164610
164633
164610
164415
164308
164407
164352
164260
164397
164446
164550
164572
164603
164529
164391
164317
164263
164222
164257
164390
164541
164670
164656
164495
164399
164313
164267
164260
164340
164403
164445
164476
164468
164419
164393
164286
164246
164297
164349
164431
164521
164561
164607
164452
164341
164265
164160
164079
164222
164375
164485
164494
164520
164406
164277
164237
164266
164250
164262
164344
164457
164519
164492
164293
164148
164184
164166
164131
164207
164243
164333
164374
164340
164232
164192
164216
164168
164178
164290
164277
164334
164415
164343
164230
164061
164004
163970
163968
164137
164258
164404
164424
164367
164280
164089
164035
163994
164095
164046
164045
164208
164344
164382
164332
164247
164203
164141
164070
164073
164079
164194
164271
164258
164213
164131
164108
164163
164078
164126
164177
164219
164261
164264
164348
164259
164116
164013
163944
163995
164082
164196
164296
164379
164343
164168
164186
164054
163983
164031
164180
164279
164265
164218
164188
164121
164035
163949
163981
164118
164268
164282
164312
164265
164214
164163
164138
164040
163961
163949
163960
164097
164271
164364
164344
164185
164051
163964
163891
163909
164057
164096
164179
164143
164108
164141
164168
164097
163915
163909
163939
164020
164123
164239
164248
164180
164109
163947
163894
163928
164009
164053
164127
164206
164253
164150
164126
164026
163958
163975
164005
164009
164096
164158
164141
164016
163871
163721
163758
163885
164028
164185
164246
164249
164211
164069
163954
163827
163721
163822
163995
164076
164100
164236
164303
164121
164002
163929
163906
163925
163951
164038
164121
164199
164185
164005
163964
163862
163818
163838
163807
163816
163895
163995
164033
163991
163980
163872
163834
163895
163956
163923
163934
164061
164207
164080
163954
163861
163792
163859
163908
163919
164018
164077
164061
163953
163981
163869
163746
163725
163833
163878
164045
164162
164160
163993
163971
163885
163817
163914
163899
164051
164273
164386
164307
164059
163926
163738
163612
163607
163681
163650
163623
163602
163508
163390
163298
163212
163110
163253
163384
163458
163573
163613
163678
163588
163575
163601
163503
163440
163462
163636
163956
164009
163892
163776
163661
163590
163511
163466
163566
163675
163777
163828
163829
163733
163647
163579
163535
163459
163491
163651
163724
163779
163774
163677
163679
163597
163513
163483
163512
163633
163753
163871
163822
163707
163597
163590
163542
163463
163536
163636
163642
163806
163889
163665
163562
163509
163516
163414
163431
163538
163605
163621
163695
163608
163640
163498
163417
163450
163462
163558
163573
163595
163567
163483
163489
163431
163418
163415
163453
163565
163514
163607
163600
163550
163578
163503
163477
163445
163387
163473
163578
163707
163754
163595
163496
163387
163316
163403
163439
163492
163587
163683
163769
163654
163521
163444
163324
163312
163288
163393
163573
163651
163668
163529
163412
163362
163343
163269
163309
163439
163454
163514
163539
163517
163466
163396
163269
163133
163144
163303
163423
163471
163508
163391
163174
163144
163185
163210
163319
163403
163470
163507
163526
163396
163275
163237
163268
163297
163267
163310
163355
163440
163397
163291
163218
163203
163126
163060
163050
163210
163380
163395
163337
163208
163088
162991
163013
163104
163139
163250
163246
163333
163334
163269
163194
163041
162887
162820
162901
163064
163242
163269
163228
163142
163043
163018
163040
162926
163050
163108
163093
163131
163207
163178
163099
163047
162998
162919
162930
163101
163127
163153
163120
163024
163000
163079
162992
162899
162900
162918
162984
163085
163186
163151
163090
163048
162908
162860
162880
162966
162926
163139
163255
163048
162998
162991
162953
162946
162909
163043
163057
163059
163094
163063
162972
162962
162879
162826
162861
163071
163124
163179
163161
163074
162950
162913
162851
162835
162914
163072
163107
163104
163140
163044
162957
162858
162789
162667
162680
162822
163028
163121
163176
163146
162953
162936
162925
162787
162717
162813
162827
162883
163000
163059
163073
162952
162849
162816
162730
162846
162875
163038
163120
163074
162916
162869
162790
162683
162630
162808
162813
162907
162996
163055
162977
162860
162709
162742
162744
162845
162934
163041
163069
162924
162751
162626
162631
162624
162841
163083
163093
163095
163135
163030
162951
162870
162757
162708
162699
162898
163005
163036
163106
163046
162995
162953
162778
162720
162644
162824
162964
163112
163216
163119
162971
162943
162882
162778
162778
162870
163016
163084
163157
163125
163004
162969
162876
162729
162698
162833
163085
163187
163202
163134
163104
163053
162930
162845
162764
162847
162936
163033
163093
163042
163070
163091
163068
163019
162915
163062
163068
163101
163145
163086
163009
162965
162889
162861
162896
163025
163116
163135
163207
163146
163037
163100
163004
162898
162882
163036
163131
163152
163134
163095
163194
163187
163105
162959
162870
162937
163022
163104
163219
163174
163049
163102
162964
162953
162961
162999
163067
163189
163366
163384
163268
163181
163146
163149
163177
163319
163317
163279
163322
163225
163133
162983
163076
163129
163163
163285
163350
163339
163479
163503
163421
163285
163227
163125
163046
163194
163271
163362
163483
163426
163361
163349
163275
163217
163154
163251
163294
163352
163467
163386
163313
163247
163220
163202
163157
163205
163272
163293
163418
163552
163457
163309
163244
163198
163128
163199
163200
163268
163371
163408
163284
163173
163367
163324
163199
163250
163347
163388
163433
163433
163360
163255
163228
163167
163172
163269
163304
163358
163593
163547
163441
163295
163145
163127
163033
163172
163292
163323
163390
163387
163432
163446
163467
163421
163397
163443
163464
163522
163625
163535
163510
163368
163288
163165
162996
163004
163014
162959
163029
163056
163069
163001
162876
162671
162557
162683
162853
163143
163340
163381
163470
163402
163304
163209
163146
163206
163303
163344
163464
163459
163361
163300
163272
163277
163259
163256
163340
163385
163442
163466
163423
163314
163281
163165
163036
163140
163350
163540
163573
163525
163462
163315
163197
163108
163060
163246
163511
163556
163581
163504
163432
163324
163305
163352
163233
163306
163374
163371
163473
163511
163540
163460
163342
163197
163078
163209
163296
163335
163597
163604
163546
163431
163448
163368
163275
163291
163278
163283
163498
163589
163645
163542
163427
163264
163200
163272
163439
163513
163583
163533
163449
163424
163423
163441
163415
163344
163411
163524
163614
163606
163593
163450
163374
163268
163352
163430
163449
163478
163628
163652
163642
163520
163427
163323
163301
163386
163619
163745
163711
163655
163652
163561
163406
163389
163446
163421
163443
163524
163681
163795
163854
163590
163480
163393
163257
163294
163498
163673
163812
163847
163785
163639
163507
163438
163368
163385
163506
163573
163709
163832
163805
163673
163583
163529
163463
163486
163544
163542
163698
163865
163918
163787
163628
163501
163439
163481
163573
163632
163705
163806
163804
163684
163571
163633
163655
163622
163691
163715
163658
163708
163718
163805
163919
163752
163601
163610
163725
163795
163831
163869
163896
163920
163801
163695
163611
163568
163696
163784
163843
163949
163962
163822
163726
163709
163576
163569
163643
163661
163810
163870
164027
163959
163785
163662
163711
163778
163791
163832
163880
163999
164048
163938
163833
163677
163499
163515
163812
163978
163988
164001
164107
164021
163897
163861
163771
163733
163861
163940
163983
164053
164097
164013
163944
163981
163856
163825
163873
163870
163993
164103
164125
164065
164077
164010
163852
163816
163920
164083
164227
164179
164204
164115
164089
164100
163933
163878
163882
163980
164075
164175
164268
164106
163931
163832
163829
163948
163963
164108
164213
164160
164341
164340
164181
164106
163955
163948
164015
164050
163979
164179
164288
164225
164075
164053
163892
163975
164095
164165
164263
164247
164216
164138
164107
164027
163977
163962
164085
164140
164187
164225
164217
164074
163971
163942
163908
163927
164057
164201
164223
164273
164347
164295
164178
164138
163962
163913
164011
164053
164096
164280
164388
164298
164181
164062
164031
164035
164086
164182
164213
164215
164297
164343
164290
164156
164028
164005
163985
164057
164217
164380
164409
164339
164207
164226
164123
164089
164080
164121
164272
164382
164473
164390
164282
164200
164084
164091
164187
164205
164289
164329
164343
164369
164288
164225
164100
164119
164134
164232
164295
164340
164327
164299
164218
164136
163958
163960
164103
164274
164471
164491
164431
164322
164245
164274
164217
164142
164137
164171
164160
164253
164358
164385
164294
164337
164230
164118
164143
164302
164383
164387
164490
164447
164345
164156
163974
163958
164132
164281
164411
164444
164490
164455
164304
164205
164067
164039
164079
164163
164349
164411
164473
164473
164346
164269
164145
164111
164048
164100
164209
164252
164394
164437
164353
164272
164136
164084
164111
164189
164245
164314
164395
164386
164330
164258
164136
164179
164123
164151
164209
164285
164413
164384
164237
164240
164073
164060
164110
164256
164302
164392
164576
164583
164391
164304
164208
164296
164325
164439
164462
164579
164665
164622
164401
164317
164099
164030
163958
164024
163935
163986
163986
164011
163946
163911
163811
163757
163757
163866
163998
164074
164261
164355
164311
164236
164127
164114
164123
164199
164314
164514
164655
164535
164461
164427
164278
164201
164172
164248
164270
164343
164475
164582
164500
164350
164274
164239
164207
164305
164372
164426
164443
164430
164483
164427
164263
164182
164246
164409
164421
164457
164585
164589
164510
164371
164216
164173
164145
164236
164554
164696
164731
164658
164562
164444
164363
164367
164364
164502
164527
164586
164687
164671
164596
164452
164289
164284
164321
164527
164619
164580
164724
164712
164541
164359
164241
164427
164443
164593
164630
164638
164683
164706
164597
164597
164439
164385
164394
164448
164626
164790
164807
164877
164730
164621
164478
164428
164370
164420
164595
164745
164891
164915
164755
164637
164494
164488
164595
164643
164698
164667
164777
164877
164812
164665
164562
164490
164538
164655
164732
164818
164889
164826
164766
164627
164539
164583
164563
164613
164729
164718
164842
164958
164789
164664
164636
164624
164679
164728
164791
164781
164877
164885
164750
164610
164592
164683
164769
164739
164755
164781
164877
164954
164926
164850
164802
164770
164711
164782
164848
164909
164975
164965
164885
164868
164761
164794
164694
164745
164852
164855
164980
164958
164932
164905
164863
164837
164818
164871
164911
164943
165050
165042
164871
164817
164794
164816
164876
164985
165150
165106
165131
165157
165081
165082
165003
164896
164853
164945
165049
165141
165215
165199
165159
165049
165001
164967
164904
164994
165029
165074
165195
165223
165148
165150
165160
165037
164966
164994
165084
165171
165354
165328
165353
165278
165209
165141
165082
165087
165248
165259
165289
165301
165269
165198
165114
165146
165168
165240
165306
165288
165416
165496
165527
165421
165306
165135
165056
165118
165256
165432
165544
165515
165440
165389
165449
165442
165338
165344
165409
165431
165555
165572
165557
165499
165404
165417
165282
165234
165306
165429
165733
165955
165876
165672
165528
165473
165388
165440
165530
165566
165600
165756
165750
165682
165586
165560
165500
165566
165672
165634
165727
165814
165811
165730
165481
165311
165400
165486
165750
165905
165936
165953
165812
165707
165687
165634
165663
165754
165868
165765
165909
165965
165929
165898
165791
165773
165696
165651
165702
165790
166041
166097
166057
165881
165771
165737
165771
165851
165954
165995
166017
166051
165972
165777
165628
165675
165844
165887
166133
166214
166188
166263
166237
166092
165983
165948
165930
165870
165918
165945
166072
166245
166273
166158
166094
166128
166080
166066
166097
166098
166225
166281
166341
166214
165998
166113
166194
166148
166192
166224
166334
166443
166460
166368
166241
166149
166108
166198
166330
166393
166387
166477
166451
166361
166340
166344
166251
166259
166333
166318
166355
166487
166504
166429
166343
166278
166301
166362
166362
166416
166445
166522
166649
166598
166444
166449
166320
166384
166544
166609
166711
166691
166604
166433
166381
166521
166653
166583
166641
166668
166754
166858
166888
166796
166713
166649
166555
166488
166531
166527
166764
166959
167105
167009
166817
166850
166807
166768
166827
166881
166974
167066
167045
166986
166812
166809
166726
166612
166771
166951
167004
167017
167118
167061
166884
166803
166690
166620
166750
166914
167014
167139
167219
167176
167027
167021
167001
166984
167006
166968
167070
167088
167110
167083
166987
166867
166795
166869
167196
167232
167179
167284
167333
167295
167146
167076
167002
166996
167083
167178
167267
167380
167345
167282
167118
167050
167063
167186
167359
167499
167598
167520
167477
167437
167255
167197
167094
167032
166979
166906
166788
166841
166882
166874
166802
166752
166632
166484
166775
167180
167151
167126
167202
167203
167102
167049
167006
167002
167080
167138
167183
167195
167263
167258
167152
167052
166879
166920
166926
166991
167186
167291
167274
167199
167076
167018
166954
166943
167078
167218
167185
167273
167407
167405
167237
167180
167043
167002
167011
166975
167089
167301
167471
167447
167290
167213
167160
167119
167083
167227
167334
167352
167384
167385
167270
167244
167219
167051
167008
167095
167161
167266
167286
167285
167231
167272
167178
167086
167130
167213
167273
167268
167255
167232
167187
167062
166985
166992
166946
167033
167158
167241
167252
167152
166985
166920
166917
167004
167099
167144
167180
167273
167267
167263
167132
167035
166938
166828
166821
166978
167058
167170
167209
167207
167007
167044
167008
166921
166913
167012
167096
167136
167115
167075
166965
166891
166822
166772
166919
167111
167105
167200
167219
167128
166994
167004
166948
166886
166886
166877
166919
167177
167326
167424
167278
167172
167067
166964
166994
166997
167045
167182
167230
167261
167061
166924
166852
166747
166627
166724
166979
167264
167289
167216
167124
167051
166982
166823
166677
166747
166924
167249
167309
167304
167008
166940
166949
166916
166957
166983
167021
167096
167207
167195
167029
167015
166923
166844
166836
166821
166897
167052
167164
167208
167024
167009
166900
166825
166844
166935
166957
167004
167118
167066
167003
166963
166914
166869
166854
166837
166951
167076
167195
167295
167136
167002
166958
166781
166810
167029
167130
167141
167172
167192
167042
166959
166874
166758
166781
166914
167053
167122
167174
167139
167034
166960
166846
166702
166602
166624
166930
167143
167264
167208
167037
167004
166945
166814
166694
166656
166703
166857
167102
167262
167071
166969
166834
166777
166772
166809
166936
167011
167079
167094
167037
166888
166774
166654
166591
166720
166880
166999
167031
167030
166944
166813
166817
166758
166674
166761
166834
167012
167117
167101
166886
166780
166681
166704
166687
166613
166727
166860
166959
167039
166891
166681
166618
166563
166571
166686
166750
166809
166903
166950
166866
166765
166651
166500
166484
166543
166793
166839
166932
167040
167053
166919
166761
166633
166633
166689
166826
166919
166926
166919
166837
166841
166722
166660
166700
166737
166897
166977
166948
166995
166873
166837
166818
166753
166739
166739
166863
166965
167048
167066
167005
166894
166813
166675
166636
166643
166792
166999
167097
167104
166983
166933
166959
166966
166876
166708
166763
166859
167065
167229
167080
166953
166892
166899
166890
166876
167020
167079
167136
167167
167008
166880
166878
166889
167025
166962
167024
166992
167024
167141
167181
167103
166971
166860
166842
166808
166947
166970
167016
167093
167148
167165
167012
166843
166762
166779
166940
166950
167073
167082
166966
166912
166847
166879
166840
166776
166887
166969
167168
167349
167284
167160
167070
166911
166876
166867
167036
167087
167157
167337
167260
167201
167107
167047
166926
166811
166847
166829
166805
166771
166591
166459
166363
166379
166474
166546
166679
166663
166786
166843
166787
166781
166800
166757
166683
166702
166902
166940
167017
167068
167015
166916
166922
166784
166794
166829
166937
166901
166997
167033
166946
166994
166986
166911
166761
166695
166802
166845
167006
167056
167060
166995
166971
166902
166800
166750
166793
166853
166939
167027
166993
166918
166850
166752
166684
166653
166864
166870
166989
167152
167076
166971
166867
166791
166732
166668
166831
166910
167089
167159
167107
166999
166873
166823
166750
166707
166837
166929
167056
167128
167090
167085
167077
167035
166906
166841
166877
166840
166909
167054
167140
167134
167113
166931
166763
166683
166830
167118
167239
167202
167180
167101
167125
166980
166846
166818
166885
166979
167073
167141
167239
167165
167076
166959
166784
166731
166915
167029
167095
167132
167071
166913
166815
166825
166753
166645
166636
166793
166947
167124
167026
166859
166716
166763
166677
166596
166705
166658
166745
166947
167101
167116
167001
166954
166794
166700
166722
166770
166857
166966
167068
166985
166891
166839
166691
166649
166703
166775
166968
167171
167066
166958
166797
166725
166808
166837
166803
166883
166995
167034
167103
167080
167021
166923
166816
166735
166788
166834
166926
167010
167012
166993
166931
166827
166767
166679
166759
166906
166945
167026
166982
167037
166927
166945
166814
166564
166517
166693
166914
167095
167158
167119
167022
166872
166769
166804
166940
167087
167053
167081
167192
167230
167091
167010
166901
166853
166936
167002
167045
167139
167220
167282
167150
167056
166787
166586
166692
166845
166948
167092
167146
167111
166990
166900
166816
166807
166865
166883
166889
166995
167030
166985
166983
167048
166978
166779
166786
166932
167058
167104
167082
167052
166878
166746
166700
166809
167062
167151
167185
167249
167224
167206
167049
166860
166721
166836
166993
167066
167019
167070
167210
167216
167125
167130
166965
166853
166926
167040
167000
167050
167051
167051
166942
166912
166783
166675
166766
166896
166995
167062
167054
167092
166972
166944
166793
166754
166866
166977
166988
167091
167179
167097
167039
166986
166819
166739
166774
166981
166986
167081
167130
167103
166911
166780
166659
166620
166760
166917
167090
167106
167072
167060
166989
166883
166742
166620
166586
166661
166859
167010
167111
167096
166997
167007
166944
166840
166819
166894
166814
166847
166867
166884
166849
166799
166680
166594
166729
166930
166962
167047
167035
166976
166958
166867
166743
166533
166547
166668
166941
167078
166973
166986
166932
166934
166763
166632
166642
166822
166898
166927
166891
166845
166798
166766
166641
166550
166562
166654
166783
166927
166945
166962
166878
166796
166720
166567
166610
166664
166698
166853
166901
166888
166753
166662
166587
166484
166596
166726
166721
166756
166784
166819
166801
166790
166699
166470
166504
166721
166917
167088
167054
167112
167000
166841
166675
166580
166480
166573
166673
166604
166525
166516
166475
166325
166096
165882
165969
166039
166122
166177
166247
166303
166311
166323
166263
166117
166143
166341
166406
166551
166683
166684
166547
166371
166184
166069
166208
166426
166466
166558
166493
166614
166573
166408
166317
166188
166175
166233
166275
166325
166334
166353
166267
166256
166214
166127
166141
166147
166249
166311
166343
166344
166254
166128
166122
166007
166010
166072
165962
165969
166132
166270
166268
166269
166152
166011
165996
166017
166050
166096
166117
166174
166122
166134
166064
165895
165846
165880
165927
165968
166015
166038
166090
166043
165960
165832
165830
165860
165911
165968
165898
165885
166005
165849
165701
165637
165733
165775
165833
165870
165931
166022
166010
165877
165766
165588
165578
165643
165686
165808
166034
166013
165938
165826
165720
165618
165557
165571
165662
165723
165784
165771
165716
165654
165745
165709
165679
165648
165671
165611
165599
165705
165630
165464
165406
165470
165499
165452
165565
165614
165574
165503
165307
165250
165233
165097
165152
165254
165449
165412
165473
165465
165395
165301
165168
165041
164991
165139
165189
165129
165187
165267
165262
165155
165090
164900
164865
164937
165116
165189
165179
165226
165215
165094
165111
164939
164852
164935
165025
165061
165096
165100
164987
165029
165000
164800
164872
165042
165099
165112
165180
165214
165129
165028
164990
164813
164797
164845
164920
164979
164945
165059
165038
164950
164848
164750
164698
164719
164859
164931
164910
165009
164978
164819
164772
164620
164616
164621
164738
164836
164935
165000
164951
164772
164711
164676
164780
164943
165034
164962
164867
164918
164891
164764
164694
164583
164697
164700
164832
164916
164920
164987
164960
164835
164784
164662
164677
164670
164764
164790
164783
164827
164824
164719
164638
164509
164461
164429
164508
164615
164764
164925
164827
164706
164592
164433
164441
164437
164512
164597
164634
164596
164614
164608
164690
164688
164483
164327
164419
164625
164878
164863
164760
164644
164565
164359
164263
164359
164592
164562
164606
164567
164553
164594
164527
164405
164306
164318
164473
164536
164514
164557
164512
164400
164363
164375
164314
164276
164359
164424
164557
164669
164596
164452
164395
164311
164317
164307
164335
164409
164526
164659
164725
164521
164378
164247
164283
164333
164510
164537
164468
164506
164543
164483
164500
164405
164266
164219
164288
164326
164460
164658
164642
164552
164495
164369
164338
164281
164297
164389
164386
164426
164513
164446
164371
164311
164201
164176
164225
164387
164489
164685
164612
164520
164460
164216
164072
164296
164520
164648
164683
164623
164619
164489
164479
164359
164271
164192
164295
164503
164563
164585
164576
164469
164385
164273
164220
164178
164276
164279
164198
164266
164331
164296
164289
164189
164244
164285
164382
164419
164392
164482
164460
164347
164262
164168
164130
164107
164148
164305
164334
164450
164390
164298
164239
164155
164096
164048
164073
164277
164259
164324
164430
164349
164262
164097
164043
164068
164126
164116
164217
164332
164361
164420
164306
164125
164099
164142
164142
164240
164302
164419
164369
164303
164224
164103
164219
164314
164234
164164
164114
164031
163964
163874
163721
163624
163613
163612
163651
163701
163723
163925
163962
163850
163715
163792
163775
163840
163945
164033
164069
164264
164391
164373
164225
164067
164011
163931
164024
164089
164112
164226
164249
164199
164071
164010
164024
164005
164079
164104
164105
164200
164245
164199
164003
163892
163878
163933
163953
164202
164228
164289
164364
164297
164131
164042
164073
163979
163929
164188
164288
164321
164362
164208
164116
164055
163925
163937
163983
164158
164181
164207
164219
164247
164100
164190
164110
164013
164040
164119
164152
164275
164348
164233
164076
163963
163926
163948
163997
164194
164218
164275
164369
164260
164102
164021
164052
164172
164132
164129
164117
164172
164257
164357
164269
164204
164147
164059
164103
164202
164192
164301
164362
164299
164257
164305
164201
164158
164185
164270
164195
164275
164337
164329
164191
164133
164164
164129
164068
164130
164200
164367
164422
164465
164376
164223
164117
164102
164163
164236
164238
164262
164359
164436
164285
164166
164163
164116
164104
164326
164334
164325
164399
164433
164352
164220
164178
164137
164119
164264
164240
164355
164533
164513
164336
164284
164196
164202
164176
164290
164339
164402
164512
164543
164491
164420
164316
164164
164130
164286
164433
164489
164511
164513
164392
164348
164327
164188
164230
164349
164400
164422
164422
164431
164456
164378
164416
164337
164275
164488
164446
164527
164635
164578
164442
164342
164337
164308
164304
164313
164263
164332
164509
164547
164499
164417
164468
164395
164384
164421
164455
164535
164595
164642
164498
164347
164210
164147
164234
164397
164532
164489
164599
164662
164628
164432
164368
164255
164276
164402
164464
164541
164675
164629
164513
164417
164373
164354
164301
164304
164252
164346
164528
164859
164816
164711
164553
164477
164394
164365
164427
164613
164753
164703
164615
164503
164520
164441
164419
164455
164483
164617
164761
164776
164726
164591
164519
164435
164500
164543
164527
164625
164744
164805
164701
164565
164571
164491
164410
164550
164681
164762
164696
164694
164694
164694
164725
164620
164521
164616
164664
164786
164886
164919
164840
164741
164706
164588
164555
164624
164685
164788
164888
164920
164880
164777
164733
164677
164540
164675
164835
164891
164954
164996
164946
164816
164703
164628
164674
164720
164773
164891
164938
164996
164905
164746
164799
164815
164754
164745
164821
164925
165012
165000
165005
164826
164877
164877
164893
164932
165002
164981
165065
165121
165094
164930
164950
164945
164917
164828
164840
164969
165119
165139
165080
165018
165032
164969
164848
164904
164940
165048
165210
165259
165161
165013
164977
164928
164963
165013
165107
165195
165323
165324
165289
165149
165102
164971
164908
165025
165166
165219
165255
165173
165264
165267
165273
165131
165037
165018
165072
165161
165329
165490
165371
165163
165131
165018
164953
165150
165295
165337
165408
165398
165423
165320
165256
165118
165075
165122
165163
165232
165392
165410
165473
165333
165300
165198
165168
165175
165218
165334
165473
165530
165498
165329
165273
165180
165085
165077
165189
165312
165398
165441
165431
165416
165354
165228
165110
165173
165271
165275
165403
165458
165342
165301
165331
165372
165463
165416
165382
165430
165476
165559
165561
165453
165417
165342
165225
165282
165287
165348
165461
165665
165699
165597
165520
165440
165372
165440
165481
165639
165877
165918
165871
165798
165700
165515
165440
165467
165458
165590
165618
165614
165514
165271
165166
165019
164972
164926
164926
165062
165217
165365
165370
165376
165386
165343
165288
165249
165356
165507
165619
165769
165742
165655
165632
165569
165567
165592
165589
165700
165739
165802
165804
165683
165681
165600
165588
165569
165592
165674
165753
165868
165975
165868
165780
165708
165550
165610
165816
165914
165961
165959
165985
165852
165776
165670
165576
165599
165706
165907
165972
165963
165966
165868
165859
165803
165723
165639
165641
165810
165892
165981
165904
165803
165819
165992
165954
165822
165812
165852
165901
166004
166199
166107
166032
165980
165895
165786
165754
166001
166123
166155
166225
166099
165967
165853
165733
165672
165751
166044
166235
166237
166171
166113
166071
166132
166043
165949
165917
166092
166204
166252
166252
166111
166084
166046
165940
165911
165949
166127
166317
166353
166358
166239
166171
166060
165972
165960
165895
166130
166202
166223
166201
166215
166222
166170
166219
166065
166103
166173
166288
166331
166443
166387
166163
166089
166013
166080
166195
166271
166299
166411
166393
166247
166243
166122
166078
166054
166139
166229
166277
166410
166455
166429
166313
166192
166028
166088
166184
166297
166305
166402
166521
166471
166340
166261
166143
166135
166138
166237
166256
166336
166398
166378
166372
166290
166162
166111
166211
166421
166409
166544
166557
166425
166360
166364
166329
166359
166335
166427
166413
166472
166538
166528
166458
166377
166303
166293
166279
166427
166518
166602
166668
166538
166457
166431
166418
166372
166326
166404
166489
166642
166763
166680
166511
166426
166347
166276
166409
166518
166587
166696
166700
166616
166511
166507
166519
166436
166440
166623
166689
166768
166810
166683
166538
166491
166451
166503
166471
166675
166854
167002
166994
166895
166778
166657
166565
166562
166536
166609
166617
166706
166937
166937
166834
166755
166612
166559
166560
166701
166765
166846
166891
166825
166737
166699
166540
166546
166672
166846
166876
166964
167028
167020
166921
166843
166769
166696
166640
166752
166770
166816
166983
167037
166912
166858
166675
166587
166610
166782
166952
167062
167141
167053
166959
166836
166685
166611
166594
166855
167088
167151
167212
167185
167095
167029
166905
166829
166780
166880
166991
167085
167182
167085
166974
166961
166949
166957
166954
167061
167147
167217
167271
167218
167102
167034
166876
166780
166765
166939
167043
167266
167484
167347
167208
167104
166974
166894
166920
167106
167181
167267
167358
167316
167230
167217
167108
167052
167043
167207
167284
167279
167388
167470
167357
167182
167069
167082
167105
167238
167383
167399
167453
167392
167374
167330
167320
167153
167032
167266
167445
167421
167438
167443
167415
167405
167408
167286
167217
167326
167404
167472
167494
167443
167383
167313
167392
167273
167106
167260
167428
167576
167707
167646
167547
167447
167441
167369
167244
167352
167487
167551
167548
167474
167465
167465
167413
167386
167375
167455
167431
167451
167573
167613
167498
167496
167490
167391
167296
167377
167517
167564
167629
167608
167558
167436
167402
167221
167308
167428
167532
167691
167804
167728
167632
167533
167465
167429
167267
167393
167558
167706
167832
167776
167874
167819
167729
167646
167619
167687
167786
167893
167988
167958
167931
167835
167687
167493
167347
167358
167439
167362
167374
167297
167263
167325
167267
167133
167121
167195
167391
167558
167617
167633
167658
167568
167535
167496
167475
167336
167370
167547
167806
167851
167860
167756
167685
167630
167556
167662
167709
167741
167875
167893
167973
167947
167886
167784
167748
167769
167885
167914
167973
167973
167944
167891
167775
167651
167628
167688
167857
168063
168239
168163
168055
167939
167891
167769
167686
167758
167909
167955
168037
168078
168075
167993
167863
167769
167813
168001
168054
168049
168071
168092
168067
167978
167915
167859
167832
167858
167969
168025
168091
168113
168120
168041
167976
167878
167840
167949
168131
168119
168134
168118
168138
168040
168002
167897
167948
167973
168071
168091
168180
168185
168225
168177
168083
167935
167827
167902
168054
168144
168297
168287
168281
168181
168112
168003
167893
167915
168018
168113
168284
168382
168362
168251
168152
168034
167934
168034
168181
168184
168197
168152
168135
168051
168069
168017
167997
168094
168178
168166
168324
168307
168337
168157
168076
167988
167906
167992
168041
168076
168226
168278
168341
168203
168059
167932
167938
168009
168099
168265
168344
168260
168182
168117
168136
168093
167992
167963
168092
168215
168334
168326
168298
168197
168126
168073
167940
167913
168021
168116
168219
168266
168373
168246
168085
168059
168051
168108
168234
168338
168371
168382
168334
168266
168269
168182
168059
168091
168232
168287
168319
168393
168379
168320
168282
168244
168188
168244
168257
168263
168330
168451
168451
168351
168022
167783
167681
167779
167938
168207
168377
168463
168514
168423
168424
168394
168237
168147
168257
168305
168370
168417
168560
168519
168535
168494
168381
168323
168386
168467
168521
168512
168514
168484
168385
168317
168237
168287
168479
168628
168632
168629
168654
168595
168518
168400
168240
168198
168297
168364
168337
168373
168492
168452
168383
168337
168216
168113
168276
168275
168373
168480
168497
168402
168254
168245
168148
168105
168237
168296
168329
168428
168569
168517
168393
168368
168256
168220
168318
168322
168289
168405
168572
168570
168594
168561
168377
168345
168442
168514
168614
168612
168707
168721
168597
168400
168252
168170
168240
168333
168463
168612
168621
168576
168485
168462
168343
168385
168458
168485
168508
168523
168612
168470
168408
168469
168532
168516
168517
168517
168576
168659
168665
168595
168481
168463
168329
168377
168349
168440
168504
168632
168622
168656
168531
168489
168394
168321
168366
168474
168582
168589
168610
168516
168414
168381
168396
168424
168358
168446
168516
168780
168774
168730
168604
168529
168439
168363
168495
168597
168639
168669
168680
168636
168637
168562
168446
168384
168473
168685
168714
168758
168832
168795
168634
168529
168496
168469
168410
168546
168648
168716
168874
168921
168773
168674
168525
168504
168529
168645
168664
168713
168826
168914
168786
168645
168476
168393
168465
168710
168857
168838
168889
168867
168824
168797
168679
168639
168591
168649
168737
168796
168907
168907
168808
168842
168649
168621
168585
168691
168831
168947
168925
168860
168847
168846
168733
168720
168708
168795
168790
168795
168842
168845
168772
168753
168719
168665
168769
168848
168839
168920
169007
168918
168807
168775
168678
168562
168672
168888
168948
168953
169089
169053
168847
168799
168661
168683
168758
168853
168919
168932
168974
168908
168849
168866
168784
168677
168655
168770
168848
168909
169086
169166
169085
169057
168964
168902
168855
168965
169112
169111
169142
169091
168901
168786
168671
168576
168639
168679
168565
168523
168638
168617
168483
168402
168318
168343
168411
168550
168662
168770
168903
168932
168849
168767
168638
168683
168834
168907
168899
168935
169030
169048
169067
169105
168933
168870
168813
168868
168903
168935
169125
169166
169114
168926
168836
168840
168866
168949
169044
169083
169155
169131
169003
168954
168862
168887
168823
168847
169001
169183
169397
169357
169224
169156
169079
169001
168971
168954
169005
169081
169201
169349
169229
169102
168938
168925
168903
168980
169139
169269
169292
169299
169252
169123
169170
169092
168990
168986
169082
169203
169312
169318
169331
169347
169275
169187
169087
169136
169201
169263
169349
169379
169344
169281
169227
169084
169078
169074
169212
169402
169541
169521
169405
169274
169112
169145
169193
169244
169273
169284
169475
169563
169488
169363
169265
169274
169268
169280
169321
169376
169518
169480
169326
169141
169074
169230
169390
169412
169436
169353
169426
169458
169424
169335
169291
169226
169183
169222
169359
169438
169583
169600
169551
169351
169187
169060
169090
169173
169361
169445
169615
169557
169484
169349
169201
169205
169200
169288
169295
169238
169346
169389
169502
169463
169336
169184
169137
169183
169341
169355
169362
169432
169445
169399
169223
169115
169094
169180
169301
169344
169505
169541
169400
169317
169205
169097
169150
169307
169388
169356
169452
169476
169515
169354
169250
169065
169031
169097
169333
169462
169551
169620
169505
169367
169187
169154
169250
169306
169377
169349
169405
169452
169488
169456
169304
169308
169268
169267
169322
169310
169437
169551
169543
169451
169302
169204
169288
169283
169331
169378
169479
169537
169446
169411
169327
169237
169224
169346
169439
169486
169621
169556
169590
169490
169404
169358
169303
169360
169368
169332
169426
169525
169598
169598
169571
169432
169279
169263
169382
169487
169654
169685
169641
169477
169317
169257
169300
169296
169415
169448
169584
169682
169640
169543
169394
169349
169303
169320
169480
169509
169544
169535
169490
169465
169414
169305
169297
169312
169430
169532
169634
169670
169595
169435
169320
169291
169385
169517
169555
169491
169570
169605
169595
169606
169476
169421
169394
169344
169388
169471
169593
169637
169673
169593
169469
169434
169384
169385
169451
169422
169516
169635
169633
169494
169418
169454
169447
169368
169393
169369
169451
169555
169557
169561
169554
169507
169408
169321
169388
169376
169644
169795
169691
169587
169548
169487
169365
169265
169356
169521
169663
169708
169765
169613
169532
169435
169310
169354
169431
169495
169601
169716
169712
169605
169530
169591
169518
169452
169451
169467
169654
169703
169634
169519
169538
169595
169505
169473
169475
169617
169737
169777
169864
169757
169630
169567
169467
169485
169587
169523
169527
169551
169683
169835
169708
169605
169541
169520
169575
169617
169689
169788
169814
169716
169730
169703
169592
169479
169448
169438
169514
169559
169602
169490
169344
169423
169456
169472
169517
169526
169691
169751
169723
169637
169514
169421
169357
169283
169396
169535
169522
169590
169663
169640
169524
169451
169464
169400
169526
169574
169607
169660
169746
169657
169518
169438
169388
169388
169446
169496
169585
169716
169686
169635
169550
169627
169474
169447
169460
169566
169610
169617
169667
169613
169599
169590
169486
169495
169493
169555
169734
169887
169950
169917
169785
169676
169617
169591
169645
169702
169788
169830
169658
169490
169444
169417
169170
169062
169060
169060
169149
169358
169328
169347
169323
169368
169345
169323
169397
169487
169573
169670
169735
169726
169638
169654
169520
169424
169449
169481
169596
169798
169937
169938
169782
169693
169551
169482
169461
169430
169537
169754
169958
169852
169734
169746
169636
169553
169630
169702
169741
169859
169960
169855
169698
169694
169588
169416
169533
169629
169760
169974
170007
169916
169798
169750
169618
169516
169543
169649
169731
169839
169905
169956
169830
169752
169605
169574
169584
169645
169720
169838
169868
169900
169753
169742
169666
169512
169551
169563
169744
169964
170025
169910
169716
169567
169524
169637
169728
169784
169806
169879
169900
169877
169716
169777
169737
169638
169641
169723
169839
169934
169964
169935
169840
169797
169688
169581
169632
169703
169774
169839
169905
169967
169869
169898
169797
169624
169568
169724
169868
169910
169962
170016
169829
169796
169770
169711
169650
169673
169705
169766
169919
170036
169910
169894
169855
169757
169643
169632
169724
169784
169942
169900
169843
169777
169789
169718
169635
169684
169780
169757
169802
169873
169896
169819
169756
169658
169619
169615
169745
169871
169887
169846
169687
169682
169699
169734
169682
169739
169801
169839
169888
169937
169836
169768
169671
169553
169582
169624
169787
169925
169953
169931
169810
169723
169715
169661
169640
169657
169748
169781
169897
169994
169918
169858
169731
169583
169615
169685
169853
169859
169898
169888
169845
169785
169777
169792
169716
169665
169761
169819
169920
169950
169930
169883
169737
169630
169586
169634
169817
169931
169934
169913
169765
169798
169818
169686
169694
169698
169757
169802
169908
169953
169878
169780
169658
169597
169604
169685
169865
169919
169956
169950
169813
169786
169849
169726
169633
169613
169706
169756
169803
169876
169825
169842
169839
169690
169733
169726
169819
169838
169887
169913
169803
169749
169729
169706
169579
169599
169724
169797
169910
169982
169883
169767
169680
169591
169569
169578
169693
169703
169785
169943
169918
169885
169860
169688
169621
169609
169747
169876
169974
169977
169918
169890
169808
169766
169712
169675
169831
169888
169975
169966
169881
169888
169956
169793
169689
169720
169877
169914
169913
170040
169980
169904
169836
169736
169662
169644
169776
169926
170091
170104
170037
170016
169927
169780
169752
169711
169875
169976
169953
169956
169983
169916
169892
169807
169750
169749
169793
169806
170063
170217
170087
169941
169898
169724
169670
169699
169792
169752
169890
169980
170052
170130
169959
169836
169763
169782
169988
170085
170099
170160
170074
169894
169828
169841
169803
169874
170047
170025
170017
170173
170083
170031
169923
169899
169865
169756
169772
169843
169905
170004
169964
169909
170025
169900
169743
169710
170015
170194
170139
170153
170122
170034
169869
169809
169716
169797
169891
169933
170079
170149
170049
170012
169978
169890
169789
169769
169892
170008
170096
170134
170075
170042
169929
169814
169706
169752
170016
170096
170054
170103
170094
170029
169975
169911
169846
169872
169962
170075
170118
170162
170116
170078
169963
169950
169800
169774
169972
170096
170161
170225
170199
170061
169971
170011
169910
169817
169868
169913
170012
170163
170243
170165
170053
169987
169921
169864
169949
170044
170076
170245
170322
170240
170125
170033
169899
169672
169690
169761
169883
169980
169958
169902
169861
169783
169666
169590
169745
169858
170020
170080
170111
170114
170100
170077
169993
169906
169972
170083
170253
170351
170264
170147
170007
169952
169892
169774
169726
169737
169672
169654
169617
169594
169554
169472
169393
169397
169501
169691
169761
169881
169841
169805
169708
169696
169815
169722
169759
169869
169940
170007
170058
170082
170038
169933
169794
169770
169806
169872
169946
169962
169944
170001
169968
169913
169801
169747
169892
169936
170042
170123
170061
170057
169984
169910
169778
169734
169831
169982
170120
170164
170139
170073
169959
169871
169803
169787
169841
169930
169979
170044
170089
170063
169931
169883
169825
169733
169836
169954
170011
169982
170030
170036
169956
169965
169885
169813
169832
169849
169948
170178
170221
170105
170023
170028
169943
169801
169780
169877
169938
170133
170178
170109
170097
170019
169886
169806
169799
169980
169952
170014
170107
170106
170071
170046
169923
169826
169876
169987
170003
170147
170174
170182
170039
169979
169922
169830
169841
169851
169961
170105
170285
170284
170085
170050
169980
169881
169876
169965
170038
170117
170137
170086
170012
169960
169902
169872
169994
170017
169976
170085
170154
170234
170115
169992
169839
169793
169864
170002
170038
170081
170045
170051
169962
169933
169912
169882
169902
169933
169969
170082
170120
170136
169985
169894
169701
169690
169792
170102
170143
170114
170122
170104
169935
169876
169898
169780
169954
170005
170074
170146
170139
170072
170094
169990
169783
169740
169803
169904
169912
169969
170152
170121
170097
170106
169992
169839
169818
169905
169927
170009
170051
170094
169965
169890
169865
169838
169819
169928
170011
170050
170109
170124
170102
169933
169890
169813
169910
170008
170054
170082
170062
170145
170100
169951
169851
169711
169801
169984
170091
170105
170121
170137
170036
169944
169897
169806
169835
169986
170084
170134
170151
170242
170166
170082
170008
169893
169899
169979
170083
170181
170179
170202
170176
170122
170025
169868
169787
169943
170158
170160
170172
170226
170157
170064
169985
169869
169869
169992
170116
170178
170192
170239
170188
170004
169927
169818
169863
170033
170218
170274
170160
170230
170246
170158
170008
169807
169793
169904
170129
170259
170236
170351
170219
170078
169956
169873
169979
170038
170067
170123
170194
170283
170273
170111
169992
169891
169954
170050
170143
170172
170186
170226
170181
170111
170123
170044
169934
169901
169998
170124
170297
170379
170313
170196
170075
169976
169990
170006
170115
170275
170288
170362
170267
170155
170072
170020
170020
170060
170130
170289
170411
170411
170327
170291
170324
170160
170096
170086
170173
170258
170350
170435
170392
170329
170292
170176
170193
170194
170241
170318
170321
170380
170364
170261
170226
170133
170155
170224
170293
170330
170438
170440
170386
170306
170319
170164
170281
170253
170265
170323
170377
170475
170522
170432
170399
170234
170107
170219
170339
170427
170555
170653
170419
170313
170300
170262
170237
170252
170439
170513
170468
170439
170434
170424
170375
170258
170219
170296
170418
170483
170477
170582
170531
170302
170200
170202
170259
170250
170410
170442
170445
170505
170485
170398
170298
170184
170219
170293
170416
170411
170492
170516
170527
170495
170368
170238
170154
170186
170308
170495
170643
170664
170612
170475
170352
170166
170182
170313
170424
170545
170554
170599
170557
170456
170454
170344
170343
170453
170510
170487
170437
170473
170476
170401
170438
170394
170284
170232
170332
170600
170660
170749
170661
170567
170518
170370
170291
170297
170408
170428
170415
170527
170591
170555
170497
170377
170293
170252
170355
170371
170434
170518
170616
170577
170419
170374
170361
170394
170424
170487
170560
170617
170581
170523
170446
170357
170336
170365
170353
170374
170431
170583
170688
170597
170528
170429
170370
170368
170437
170554
170670
170757
170824
170772
170762
170668
170574
170567
170608
170676
170641
170660
170549
170413
170237
170020
169922
169859
169917
170022
170026
170215
170224
170231
170202
170205
170159
170089
170201
170322
170271
170495
170671
170510
170444
170366
170371
170446
170392
170503
170568
170660
170613
170536
170495
170389
170297
170274
170335
170413
170521
170673
170730
170574
170478
170411
170348
170378
170346
170445
170490
170526
170501
170512
170526
170411
170384
170342
170437
170591
170634
170654
170630
170609
170465
170299
170096
170168
170399
170613
170699
170785
170721
170636
170499
170380
170247
170226
170332
170449
170572
170758
170729
170693
170514
170347
170333
170295
170334
170429
170437
170512
170562
170607
170633
170543
170390
170309
170320
170390
170384
170407
170445
170500
170550
170378
170325
170321
170356
170519
170546
170672
170646
170415
170234
170247
170223
170235
170234
170394
170510
170661
170662
170597
170449
170432
170390
170241
170321
170425
170416
170527
170469
170425
170409
170424
170393
170264
170249
170365
170474
170572
170640
170517
170373
170280
170300
170216
170098
169986
170181
170391
170460
170490
170406
170172
170045
170030
170084
170256
170345
170421
170495
170525
170366
170272
170228
170122
170062
170174
170258
170463
170542
170398
170290
170180
170200
170223
170201
170298
170256
170399
170449
170440
170320
170195
170107
170029
170183
170298
170345
170445
170467
170422
170347
170301
170227
170123
170078
170137
170203
170328
170446
170471
170427
170275
170155
170075
170137
170285
170317
170382
170444
170487
170331
170107
170085
170145
170254
170308
170322
170434
170484
170481
170377
170179
170066
170134
170175
170296
170370
170372
170392
170396
170357
170349
170294
170185
170107
170182
170277
170343
170471
170556
170338
170224
170236
170165
170255
170317
170309
170354
170333
170323
170257
170301
170251
170240
170149
170131
170178
170294
170424
170428
170263
170126
170188
170219
170111
170188
170188
170287
170465
170531
170374
170258
170195
170096
170064
170161
170241
170312
170308
170309
170357
170288
170172
170120
170067
170178
170192
170226
170306
170386
170301
170120
170070
170017
169980
170092
170242
170327
170452
170405
170293
170196
170197
170106
170039
170034
170074
170164
170350
170378
170337
170194
170098
170033
169985
170112
170219
170361
170372
170357
170244
170137
170046
169988
170077
170183
170149
170207
170293
170278
170201
170061
170027
169972
170088
170089
170112
170300
170411
170399
170292
170118
170056
169924
169909
170056
170217
170375
170341
170335
170246
170181
170145
170055
169967
170025
170126
170139
170242
170284
170406
170243
170170
170094
170077
170126
170210
170257
170254
170328
170306
170112
170018
169910
169985
170113
170232
170295
170417
170471
170343
170184
170100
170002
169952
169959
170003
170106
170339
170434
170312
170101
170058
169981
170040
170097
170164
170273
170327
170339
170338
170120
170050
169966
169875
170052
170204
170239
170276
170312
170250
170135
170061
169939
169893
169962
170094
170187
170299
170298
170300
170204
170217
170068
169978
170016
170053
170188
170345
170326
170297
170151
170099
170013
169968
169937
169949
170072
170226
170131
170185
170061
169976
169891
169890
169953
169994
170082
170117
170199
170146
169933
169854
169893
169992
169896
169945
170071
170195
170239
170269
170093
169941
169881
169776
169769
169760
169918
170176
170249
170308
170168
170101
170012
169937
169944
169983
170082
170285
170372
170355
170068
170066
170023
169925
169836
169868
169864
169949
169937
169931
169702
169571
169379
169344
169386
169483
169605
169708
169802
169891
169780
169765
169675
169654
169716
169823
170003
170172
170249
170181
170034
169967
169862
169799
169827
169898
169995
170056
170071
170082
170000
170186
170152
169980
169904
169949
170053
170208
170152
170181
170026
169976
169857
169766
169800
169866
170125
170173
170331
170312
170124
170083
169996
169863
169816
169887
170030
170201
170164
170093
170017
170058
169959
169867
169926
169970
170059
170150
170227
170237
170138
170021
169988
169906
169845
169924
170029
170177
170138
170145
170048
169969
169891
169776
169877
169997
170057
170173
170251
170235
170082
170037
170033
169920
169901
169975
170051
170050
170083
170102
170011
170034
170031
169961
169838
169975
170116
170128
170268
170239
170067
170057
170008
169916
169943
169953
170086
170145
170195
170229
170088
170028
169883
169788
169834
169909
170008
170085
170180
170169
170065
170011
169961
169843
169816
169827
169897
169929
170037
170247
170165
170089
170002
169849
169783
169780
169909
169928
169971
170095
169995
169889
169936
169847
169835
169922
169979
170020
170019
170010
169900
169872
169884
169855
169734
169784
169879
169937
170065
170107
170013
169890
169777
169712
169637
169590
169748
169962
170031
169989
169966
169819
169772
169778
169773
169829
169846
169914
169985
170037
170012
170016
169876
169789
169891
169913
169966
170039
170072
170048
169976
169972
169881
169802
169804
169728
169869
169980
170061
170034
169999
169893
169859
169748
169738
169766
169905
170013
170144
170115
169971
169978
170022
169916
169861
169870
169946
169962
169956
169950
170018
169991
169957
169865
169715
169689
169853
169995
170111
170084
169962
169879
169841
169718
169614
169654
169812
169936
170075
170065
170116
170057
169865
169736
169690
169619
169751
169865
169974
170087
170066
169957
169817
169740
169743
169702
169784
169888
169988
170004
169906
169801
169785
169628
169500
169505
169689
169867
169938
169914
169786
169790
169702
169643
169643
169679
169861
169816
169903
169911
169913
169870
169834
169656
169625
169640
169730
169724
169827
169947
169929
169835
169771
169663
169598
169602
169713
169724
169792
169844

[算法提取后的结构化特征]
# 由 EcgFeatureExtractor.extract() + toPromptText() 在手机端重建
# 与手表端发给 DeepSeek 的提示词文本一致（DS 实际收到的数据）
# 注意: 用户 profile（年龄性别）未存入测量记录，手机端重建时为'未知'
#       助手如需年龄性别做医学判断，需用户单独提供

[用户属性]

[全局指标]
采样率:500Hz 时长:30.6s 总点数:15320
R波检测:0个 平均心率:0bpm 范围:0-0bpm
SDNN:0.0ms RMSSD:0.0ms pNN50:0.0%
QRS宽度(本地估测,ms):0±0
PR间期(本地估测,ms):0±0
QT间期(本地估测,ms):0 QTc(Bazett):0ms QTc(Fridericia):0ms
R波平均振幅:0.00mV
信号质量:0.85 良好

[节律判别特征]
RR变异系数:0.000(规律)
Poincaré散点形态:数据不足
短-长RR配对数(早搏代偿):0个

[逐秒分段]
时段(s)  R波  振幅范围(mV)  峰峰值(mV)  最大斜率(mV/s)  RMS(mV)
0.0-1.0  0  -3.39~2.40  5.79  153.50  1.51
1.0-2.0  0  -1.60~1.26  2.85  194.00  0.65  ← 本秒无R波(心率<60或代偿间隙)
2.0-3.0  0  -1.34~0.99  2.33  146.50  0.58  ← 本秒无R波(心率<60或代偿间隙)
3.0-4.0  0  -1.02~0.87  1.88  150.50  0.45  ← 本秒无R波(心率<60或代偿间隙)
4.0-5.0  0  -0.53~0.46  0.99  152.00  0.19  ← 本秒无R波(心率<60或代偿间隙)
5.0-6.0  0  -0.71~0.49  1.19  132.50  0.19  ← 本秒无R波(心率<60或代偿间隙)
6.0-7.0  0  -0.60~0.51  1.11  142.00  0.27  ← 本秒无R波(心率<60或代偿间隙)
7.0-8.0  0  -0.68~0.69  1.37  175.50  0.22  ← 本秒无R波(心率<60或代偿间隙)
8.0-9.0  0  -0.54~0.58  1.11  160.00  0.23  ← 本秒无R波(心率<60或代偿间隙)
9.0-10.0  0  -0.65~0.60  1.25  137.50  0.24  ← 本秒无R波(心率<60或代偿间隙)
10.0-11.0  0  -0.68~0.84  1.52  129.50  0.33  ← 本秒无R波(心率<60或代偿间隙)
11.0-12.0  0  -1.10~0.86  1.96  215.50  0.51  ← 本秒无R波(心率<60或代偿间隙)
12.0-13.0  0  -0.82~0.74  1.56  111.50  0.37  ← 本秒无R波(心率<60或代偿间隙)
13.0-14.0  0  -0.73~0.57  1.31  126.50  0.25  ← 本秒无R波(心率<60或代偿间隙)
14.0-15.0  0  -0.56~0.55  1.11  153.50  0.23  ← 本秒无R波(心率<60或代偿间隙)
15.0-16.0  0  -0.89~0.75  1.64  152.00  0.40  ← 本秒无R波(心率<60或代偿间隙)
16.0-17.0  0  -1.37~1.20  2.57  400.50  0.67  ← 本秒无R波(心率<60或代偿间隙)
17.0-18.0  0  -0.91~0.85  1.76  160.00  0.46  ← 本秒无R波(心率<60或代偿间隙)
18.0-19.0  0  -0.87~0.92  1.78  148.50  0.35  ← 本秒无R波(心率<60或代偿间隙)
19.0-20.0  0  -0.82~1.38  2.20  159.00  0.45  ← 本秒无R波(心率<60或代偿间隙)
20.0-21.0  0  -1.48~0.81  2.29  202.50  0.46  ← 本秒无R波(心率<60或代偿间隙)
21.0-22.0  0  -0.55~0.43  0.99  144.00  0.17  ← 本秒无R波(心率<60或代偿间隙)
22.0-23.0  0  -1.31~1.76  3.06  136.50  0.90  ← 本秒无R波(心率<60或代偿间隙)
23.0-24.0  0  -0.96~1.13  2.09  165.50  0.46  ← 本秒无R波(心率<60或代偿间隙)
24.0-25.0  0  -1.66~1.40  3.06  146.50  0.68  ← 本秒无R波(心率<60或代偿间隙)
25.0-26.0  0  -1.02~0.81  1.83  164.50  0.35  ← 本秒无R波(心率<60或代偿间隙)
26.0-27.0  0  -0.75~0.56  1.31  134.00  0.23  ← 本秒无R波(心率<60或代偿间隙)
27.0-28.0  0  -0.44~0.52  0.96  152.50  0.17  ← 本秒无R波(心率<60或代偿间隙)
28.0-29.0  0  -0.45~0.61  1.06  155.00  0.23  ← 本秒无R波(心率<60或代偿间隙)
29.0-30.0  0  -0.52~0.55  1.06  129.00  0.20  ← 本秒无R波(心率<60或代偿间隙)

[AI 解读]
# DeepSeek 返回的原始 JSON（未清洗，可能含 markdown 代码块包裹）
{
  "平均心率": "无法计算",
  "心率范围": "无",
  "心率稳定性": "无",
  "心率置信度": "低",
  "SDNN_ms": 0.0,
  "RMSSD_ms": 0.0,
  "pNN50_pct": 0.0,
  "HRV解读": "数据不足,无法解读",
  "HRV置信度": "低",
  "节律判断": "数据不足,无法判断",
  "RR间期规律性": "无RR间期",
  "早搏提示": [],
  "节律置信度": "低",
  "PR间期_ms": 0,
  "PR判断": "数据不足,无法判断",
  "PR置信度": "低",
  "QRS宽度_ms": 0,
  "QRS判断": "数据不足,无法判断",
  "QRS置信度": "低",
  "QTc_ms": 0,
  "QTcFridericia_ms": 0,
  "QTc判断": "数据不足,无法判断",
  "QTc置信度": "低",
  "间期数据来源": "本设备本地算法估测,误差约±15ms",
  "信号质量": "良好（但未检测到R波）",
  "噪声段": ["全程无R波检测,可能为非心电信号或导联接触不良"],
  "异常提示": ["未检测到R波,可能信号非心电或导联脱落"],
  "综合解读": "本次记录未检测到明确的QRS波群,平均心率为0bpm。信号质量良好但无R波检出,可能原因为电极接触不良、非心电信号干扰或设备算法未识别正常心搏。无法进行节律、间期及HRV分析。",
  "健康建议": ["请重新正确佩戴设备,确保电极与皮肤充分接触", "若多次记录均无R波,建议更换设备或就医检查"],
  "免责声明": "本报告基于腕表单导联ECG统计特征生成,间期为本地算法估测,仅供健康参考,不作为医疗诊断依据。如有不适请就医复查标准12导联心电图。"
}
