========== ECG 算法诊断包 ==========
测量时间: 2026-07-16 18:31:19
测量时间戳:1784197879811
采样率:500 Hz
数据点数:15320
时长:30.6 秒
分析方法:ds_pro_max
Tavily状态:已检索医学文献并注入提示词（房颤检测方法学/HRV参考值/QTc临床意义）

[原始 ECG 数据]
# 单位: mV×1000 整数（如 500 = 0.5mV，-1000 = -1.0mV）
# 采样率: 500 Hz，连续采样，无降采样无压缩
# 用途: 助手据此复现本地算法行为（基线漂移/噪声段/R波检测）
# 格式: 每行一个数值，行号=采样点索引（第1行=索引0，即 t=0.000s）
165900
166031
166125
166091
165969
165904
165864
165739
165777
165965
166040
166039
166128
166170
166084
165933
165848
165773
165663
165831
165980
166056
166135
166094
165975
165896
165875
165873
165821
165799
165851
165950
166108
166175
166075
165910
165838
165719
165820
165906
165898
165964
166033
166071
166060
165989
165913
165796
165685
165773
165873
166023
166187
166194
166101
166014
165969
165838
165779
165870
166097
166198
166090
166156
166111
166022
165916
165885
165939
165947
165947
166116
166301
166289
166239
166077
166093
165968
165992
166113
166133
166307
166456
166461
166376
166207
166112
166073
165961
166041
166188
166282
166363
166446
166370
166188
166130
166023
166045
166129
166116
166178
166292
166265
166274
166118
166068
165988
165976
166057
166271
166354
166442
166384
166355
166142
166128
166085
166076
166198
166287
166353
166413
166434
166366
166241
166237
166253
166220
166216
166272
166377
166458
166466
166409
166242
166311
166282
166191
166163
166260
166400
166537
166617
166622
166396
166352
166202
166225
166263
166303
166358
166459
166520
166520
166348
166306
166250
166269
166307
166449
166496
166489
166511
166429
166410
166460
166355
166362
166371
166429
166529
166632
166592
166451
166351
166398
166410
166388
166332
166428
166507
166603
166653
166553
166443
166475
166454
166334
166363
166409
166464
166540
166692
166751
166623
166681
166505
166394
166434
166541
166619
166756
166814
166780
166603
166548
166491
166512
166496
166635
166750
166876
166834
166831
166654
166548
166464
166459
166448
166466
166554
166728
166882
166884
166759
166708
166507
166360
166395
166620
166703
166738
166749
166764
166595
166570
166456
166346
166479
166633
166751
166762
166818
166833
166664
166608
166484
166434
166457
166533
166676
166741
166821
166775
166588
166512
166466
166475
166529
166713
166843
166950
167058
167069
166906
166913
166875
166840
166836
166872
166915
167111
167192
167121
166896
166709
166538
166388
166254
166249
166278
166392
166547
166621
166456
166357
166285
166290
166336
166548
166666
166746
166839
166861
166807
166737
166735
166626
166657
166721
166799
166888
167052
166972
166836
166831
166760
166658
166604
166616
166744
166861
166940
166926
166751
166748
166718
166696
166719
166749
166855
166896
167006
166994
166843
166801
166733
166751
166645
166709
166897
166998
167108
167120
166909
166792
166716
166770
166855
166896
166999
167034
167133
167185
167102
167057
166934
166842
166789
166851
167011
167062
167269
167253
167216
167122
167000
166891
166864
167025
167170
167233
167301
167343
167278
167213
167111
166988
166931
166994
167181
167263
167392
167411
167267
167284
167258
167066
166998
167029
167130
167237
167313
167438
167357
167250
167163
167040
167008
167026
167136
167220
167344
167303
167236
167112
166989
167015
167029
167044
167096
167183
167338
167411
167407
167321
167232
167041
166991
166995
167095
167255
167470
167575
167527
167278
167269
167180
167136
167149
167290
167371
167420
167396
167237
167288
167300
167173
167202
167226
167330
167383
167431
167476
167379
167290
167271
167169
167134
167261
167409
167369
167416
167494
167447
167340
167246
167174
167197
167178
167322
167399
167507
167601
167535
167537
167431
167251
167182
167205
167382
167365
167441
167516
167452
167347
167336
167352
167424
167410
167504
167518
167563
167618
167534
167423
167367
167224
167102
167142
167315
167402
167505
167576
167542
167460
167455
167309
167116
167147
167344
167407
167545
167688
167620
167488
167384
167361
167282
167308
167468
167577
167554
167633
167593
167479
167510
167369
167215
167273
167458
167553
167683
167724
167605
167499
167472
167340
167232
167297
167475
167564
167645
167694
167712
167679
167579
167479
167398
167429
167527
167530
167667
167714
167738
167733
167693
167543
167414
167425
167606
167742
167808
167822
167781
167700
167647
167541
167481
167438
167603
167823
167973
168012
167977
167857
167716
167613
167568
167620
167796
167818
167831
167898
167874
167855
167848
167794
167716
167658
167741
167792
167827
167930
167872
167806
167822
167801
167614
167577
167675
167842
167931
168064
168090
167980
167925
167795
167641
167563
167729
167789
167940
168049
167986
167941
167943
167837
167758
167679
167762
167882
167974
168051
167980
167880
167810
167742
167645
167505
167675
167855
167997
168112
168096
167956
167874
167809
167612
167566
167726
167810
167866
167974
168059
168003
167864
167840
167708
167586
167675
167911
167922
168021
168001
168008
167932
167728
167670
167632
167759
167909
168018
168062
168028
167929
167838
167851
167790
167725
167808
167915
167922
167983
167985
167945
167947
167958
167761
167636
167772
167929
168076
168105
168099
168088
167997
167901
167839
167775
167861
167934
168014
168087
168114
168055
167926
167935
167774
167744
167890
167979
168028
168132
168159
168244
168072
167916
167889
167847
167933
168005
168097
168182
168123
168169
168095
167990
167979
167913
167958
168172
168200
168302
168296
168317
168183
168136
168049
167998
168121
168230
168274
168337
168347
168346
168223
168022
167939
167884
168031
168235
168283
168282
168362
168423
168301
168170
168072
168072
168081
168058
168178
168379
168407
168335
168203
168137
168106
168093
168137
168266
168265
168342
168361
168360
168244
168185
168172
168034
168078
168253
168273
168368
168427
168424
168346
168224
168126
168069
168036
168222
168231
168310
168425
168526
168387
168296
168189
168057
168050
168153
168249
168494
168573
168524
168442
168409
168239
168153
168135
168276
168399
168473
168575
168553
168496
168417
168329
168210
168323
168511
168616
168715
168737
168745
168640
168543
168478
168321
168265
168252
168207
168278
168308
168205
168064
167948
167890
167808
167781
167894
167964
168145
168212
168366
168297
168222
168167
168122
168121
168231
168350
168430
168420
168494
168457
168511
168431
168251
168271
168403
168453
168494
168497
168600
168548
168408
168273
168102
168205
168396
168576
168565
168595
168606
168446
168413
168419
168334
168338
168342
168504
168596
168660
168643
168631
168542
168489
168413
168422
168538
168614
168678
168649
168684
168560
168489
168411
168312
168323
168429
168589
168704
168663
168646
168615
168559
168363
168253
168315
168485
168631
168655
168611
168650
168623
168518
168443
168380
168321
168381
168558
168623
168614
168679
168704
168487
168438
168328
168381
168495
168621
168750
168822
168877
168758
168646
168547
168482
168534
168549
168597
168678
168799
168837
168745
168674
168630
168576
168563
168595
168730
168878
168877
168859
168832
168731
168729
168557
168560
168622
168665
168763
168803
168976
168956
168763
168652
168587
168601
168640
168788
168832
168890
168952
168881
168782
168693
168537
168568
168668
168783
168942
168941
168910
168858
168763
168690
168566
168611
168691
168767
168814
168796
168854
168913
168832
168699
168619
168657
168663
168706
168762
168767
168767
168824
168737
168783
168668
168591
168619
168716
168764
168817
168931
168898
168730
168610
168408
168476
168623
168809
168929
168916
168922
168874
168727
168680
168547
168592
168614
168662
168661
168714
168875
168815
168740
168717
168545
168607
168625
168665
168816
168854
168896
168870
168799
168700
168497
168534
168648
168798
168862
168821
168920
168900
168796
168755
168582
168567
168607
168733
168793
168866
168974
169018
168907
168814
168704
168627
168600
168829
168850
169031
169108
169060
168840
168719
168681
168673
168916
168965
168981
169018
169116
169091
168921
168875
168803
168790
168714
168803
168868
168946
169050
169042
168932
168880
168757
168673
168808
168872
168931
168995
169124
169191
169045
168900
168697
168677
168713
168972
169059
169093
169153
169073
168978
168925
168815
168796
168800
168881
168858
168982
169014
168994
168963
169004
168911
168887
168825
168860
168876
168899
169071
169198
169078
168969
168864
168817
168775
168923
168981
169121
169222
169149
169036
168933
168821
168783
168770
168878
168925
168991
169199
169250
169106
168964
168813
168841
168908
168996
169035
169059
169216
169214
169027
168960
168868
168865
168850
168921
169015
168985
169208
169184
169034
168946
168807
168771
168795
168757
169016
169003
169103
169270
169114
169010
168916
168765
168652
168800
168987
169085
169161
169244
169076
169028
168840
168835
168849
168898
168971
169002
169103
169118
169090
168993
168866
168767
168723
168903
169065
169091
169279
169233
169186
169107
168945
168784
168739
168890
169090
169241
169363
169359
169258
169161
168987
168926
169005
169005
168990
169000
169189
169324
169291
169134
169017
168949
168839
168901
168988
169064
169257
169251
169170
169140
169051
169004
168931
168965
169095
169087
169290
169332
169154
168998
168887
168948
168982
169044
169188
169162
169252
169267
169178
169137
169049
168939
168974
169038
169113
169092
169282
169384
169301
169204
169043
168983
168970
169055
169179
169238
169379
169448
169335
169183
169081
168964
168900
169057
169167
169260
169437
169425
169399
169263
169160
169084
169010
169021
169205
169316
169433
169439
169381
169326
169319
169195
169071
169098
169203
169238
169370
169627
169608
169432
169349
169172
169153
169198
169377
169500
169689
169692
169671
169554
169484
169431
169293
169369
169519
169578
169661
169665
169422
169212
169076
168912
168788
168877
169002
168951
169003
169144
169106
169024
168920
168938
168946
168966
169127
169237
169349
169458
169546
169453
169344
169299
169223
169202
169287
169319
169467
169525
169588
169398
169205
169150
169210
169233
169367
169354
169456
169576
169565
169466
169347
169220
169232
169258
169262
169327
169514
169551
169597
169449
169256
169249
169197
169251
169346
169387
169507
169541
169561
169492
169367
169268
169147
169122
169285
169404
169541
169605
169626
169524
169395
169290
169188
169143
169265
169296
169419
169554
169553
169502
169343
169283
169328
169362
169430
169417
169460
169543
169648
169495
169331
169310
169237
169209
169296
169352
169402
169579
169704
169610
169437
169405
169311
169277
169418
169419
169488
169579
169608
169551
169458
169387
169255
169327
169387
169475
169601
169684
169656
169523
169419
169438
169358
169248
169397
169454
169495
169634
169740
169567
169361
169301
169213
169199
169228
169286
169518
169591
169625
169487
169438
169413
169300
169152
169175
169203
169391
169579
169489
169300
169250
169258
169233
169180
169226
169203
169328
169510
169566
169503
169333
169236
169167
169064
169124
169207
169320
169439
169547
169449
169299
169229
169152
169009
169106
169219
169302
169401
169382
169342
169177
169125
169030
169001
169191
169248
169306
169427
169493
169489
169314
169231
169110
169055
169064
169146
169263
169401
169454
169379
169221
169181
169023
169049
169136
169181
169261
169362
169389
169348
169201
169140
169089
169100
169147
169193
169339
169421
169498
169420
169157
169068
168975
168976
169084
169288
169443
169391
169342
169290
169121
169176
169142
169163
169117
169183
169215
169331
169387
169318
169179
169082
168956
168957
169032
169219
169345
169390
169350
169316
169274
169264
169140
169040
169053
169125
169286
169445
169512
169448
169306
169270
169196
169108
169210
169353
169446
169542
169559
169519
169338
169281
169273
169320
169303
169291
169414
169559
169631
169552
169380
169403
169272
169166
169231
169327
169406
169527
169644
169523
169392
169312
169205
169229
169184
169267
169395
169509
169595
169543
169389
169316
169169
169162
169212
169326
169287
169536
169609
169560
169370
169309
169227
169152
169146
169170
169281
169438
169497
169475
169319
169343
169263
169203
169245
169274
169347
169466
169465
169424
169229
169229
169269
169209
169204
169313
169442
169411
169430
169414
169353
169508
169390
169254
169227
169352
169403
169501
169532
169495
169335
169353
169314
169224
169138
169262
169368
169421
169496
169469
169296
169383
169263
169233
169344
169365
169451
169426
169475
169454
169413
169397
169489
169459
169346
169433
169574
169552
169575
169495
169396
169517
169518
169413
169363
169484
169529
169551
169649
169583
169411
169435
169490
169379
169373
169364
169366
169531
169729
169760
169610
169502
169345
169254
169263
169357
169471
169559
169649
169700
169508
169386
169276
169193
169242
169339
169492
169579
169624
169704
169628
169559
169478
169379
169285
169284
169345
169430
169601
169702
169569
169513
169473
169348
169245
169324
169497
169582
169622
169604
169482
169473
169335
169233
169099
169228
169502
169634
169691
169663
169578
169497
169417
169251
169220
169271
169351
169463
169808
169762
169662
169613
169510
169426
169392
169461
169625
169576
169623
169667
169595
169589
169508
169378
169332
169417
169627
169695
169796
169846
169852
169835
169800
169660
169593
169615
169704
169802
169821
169678
169460
169293
169200
169082
169083
169076
169149
169163
169248
169336
169302
169151
169097
168978
169030
169035
169281
169381
169559
169643
169558
169510
169378
169281
169247
169211
169459
169582
169623
169603
169502
169409
169449
169323
169373
169465
169520
169574
169690
169694
169577
169537
169495
169389
169324
169267
169435
169583
169703
169658
169622
169662
169528
169401
169307
169303
169438
169601
169717
169697
169543
169473
169433
169395
169415
169416
169525
169582
169650
169632
169591
169495
169457
169355
169366
169347
169464
169540
169592
169608
169499
169478
169514
169418
169349
169364
169497
169503
169599
169645
169521
169384
169362
169341
169288
169303
169474
169618
169753
169845
169772
169594
169454
169347
169354
169384
169460
169491
169687
169813
169663
169590
169556
169445
169417
169396
169512
169555
169657
169775
169693
169571
169486
169403
169265
169083
169298
169478
169718
169770
169694
169514
169472
169385
169351
169339
169441
169502
169582
169648
169582
169409
169424
169340
169305
169329
169437
169444
169550
169622
169643
169643
169525
169374
169266
169252
169333
169464
169650
169612
169611
169569
169520
169447
169407
169393
169396
169497
169632
169699
169616
169558
169533
169421
169299
169223
169330
169507
169752
169835
169661
169550
169506
169487
169500
169438
169496
169521
169556
169648
169645
169676
169647
169602
169466
169508
169582
169689
169729
169730
169690
169618
169506
169509
169451
169485
169612
169615
169739
169807
169769
169663
169626
169589
169432
169396
169536
169574
169590
169629
169591
169605
169679
169559
169512
169424
169467
169553
169663
169741
169681
169683
169571
169441
169343
169228
169380
169601
169738
169792
169715
169636
169547
169521
169483
169409
169452
169572
169609
169685
169623
169577
169662
169605
169487
169381
169463
169480
169583
169785
169722
169701
169640
169607
169495
169382
169451
169612
169715
169830
169720
169604
169469
169356
169335
169336
169623
169663
169651
169713
169663
169597
169544
169455
169398
169336
169437
169577
169604
169730
169730
169647
169485
169418
169357
169364
169511
169576
169514
169592
169617
169661
169619
169434
169377
169253
169351
169436
169488
169629
169705
169714
169571
169457
169324
169290
169393
169471
169561
169653
169676
169668
169542
169468
169367
169323
169329
169484
169667
169760
169793
169755
169578
169451
169346
169276
169377
169550
169722
169767
169774
169734
169572
169431
169291
169251
169345
169526
169696
169847
169733
169680
169688
169685
169518
169359
169422
169512
169592
169767
169818
169799
169639
169539
169400
169351
169441
169548
169584
169622
169698
169749
169631
169544
169439
169363
169399
169543
169556
169653
169696
169788
169665
169540
169445
169302
169339
169561
169735
169832
169800
169753
169648
169557
169487
169454
169484
169627
169697
169731
169798
169890
169788
169655
169574
169495
169498
169657
169771
169766
169752
169752
169740
169683
169665
169602
169640
169764
169887
169875
169909
169970
169858
169771
169653
169562
169620
169760
169803
169885
169983
169974
169867
169820
169621
169554
169623
169715
169775
169829
169843
169910
169871
169715
169676
169626
169608
169722
169738
169805
170004
170084
169968
169788
169659
169577
169567
169774
169901
169919
169924
169953
169882
169826
169755
169645
169669
169736
169821
169912
169974
170056
169990
169840
169747
169670
169776
170025
170107
170191
170219
170235
170145
170000
169909
169772
169745
169846
169975
169954
169807
169785
169645
169559
169462
169324
169320
169377
169431
169503
169460
169497
169416
169460
169608
169495
169553
169672
169807
169875
169936
169924
169873
169863
169836
169697
169595
169616
169689
169823
169938
170011
169900
169786
169845
169676
169629
169709
169840
169866
169779
169839
169922
170045
169962
169696
169693
169797
169847
169928
169979
170028
169955
169879
169798
169687
169636
169697
169826
169945
170016
170127
170034
169933
169792
169658
169713
169815
169901
169918
170017
170116
170045
169987
169893
169744
169791
169916
170044
170029
169990
170053
170065
169963
169958
169773
169741
169845
169984
170030
170093
170191
170119
169984
169936
169817
169803
169808
169915
170075
170157
170237
170181
170014
169901
169816
169831
169886
170020
170058
170117
170204
170192
170110
169982
169839
169820
169841
169963
170123
170243
170320
170195
170031
170004
169828
169898
170008
170106
170210
170252
170233
170135
170050
170038
169950
169945
170081
170149
170141
170201
170260
170284
170258
170156
169907
169930
169962
170087
170156
170302
170399
170312
170192
170138
169945
169903
170019
170203
170283
170315
170389
170282
170106
170081
170017
169993
169986
170082
170145
170260
170398
170395
170101
169992
169888
169996
170113
170258
170353
170351
170377
170336
170203
170111
170038
170030
170034
170093
170107
170176
170263
170388
170356
170291
170082
170062
170109
170201
170235
170304
170426
170328
170207
170227
170181
170080
170063
170174
170233
170272
170349
170400
170269
170137
170073
169990
169995
170132
170170
170189
170351
170428
170338
170185
170048
169970
169969
170061
170134
170209
170445
170444
170351
170227
169999
169954
169909
170091
170229
170206
170384
170489
170392
170228
170099
169994
169998
170135
170126
170189
170394
170463
170324
170187
170051
169958
170003
170069
170109
170164
170346
170464
170262
170121
169869
169893
170102
170285
170248
170217
170304
170343
170260
170203
170127
170084
169999
170123
170235
170217
170285
170299
170146
170041
170012
169971
169967
170040
170157
170222
170412
170340
170221
170139
170005
169875
169838
169918
170053
170125
170188
170181
170231
170206
170077
170052
169949
169998
170142
170158
170279
170296
170186
170047
169938
169956
169972
169992
170077
170165
170256
170268
170164
170094
170003
169953
169834
169814
169974
170178
170299
170273
170143
169945
169909
169921
169879
169926
170021
170123
170321
170293
170190
170054
169943
169903
169859
169967
170123
170172
170289
170276
170152
169945
169865
169827
169889
169988
170107
170197
170281
170267
170191
170084
169922
169760
169772
169854
170017
170041
170130
170204
170057
169925
169817
169797
169778
169785
169756
169797
170054
170155
170083
170105
169882
169795
169724
169779
169898
170046
170130
170116
170017
169829
169748
169626
169720
169928
169979
169980
170067
170073
170011
169894
169725
169658
169621
169757
169802
169850
169991
170108
170129
169990
170051
169806
169678
169821
169934
169952
170033
170062
170003
169914
169876
169778
169703
169749
169834
169879
169959
170045
169977
169854
169715
169659
169615
169796
170064
169975
170039
170041
169999
169893
169811
169750
169723
169743
169891
169843
169908
169963
169892
169865
169900
169782
169763
169785
169893
169868
169972
170076
170027
169899
169893
169752
169797
169865
169926
170034
170209
170244
170268
170188
170089
169972
169914
169876
169980
169866
169864
169910
169955
169848
169612
169402
169231
169245
169337
169413
169547
169693
169735
169627
169492
169414
169451
169574
169686
169720
169852
169959
169979
169920
169774
169718
169638
169656
169828
169930
170026
170007
169971
169839
169793
169809
169742
169594
169703
169782
170010
169998
170002
169879
169757
169707
169574
169616
169654
169754
169944
170069
169950
169834
169856
169771
169766
169659
169731
169678
169732
169825
169967
169992
169861
169743
169613
169557
169668
169749
169773
169890
169836
169711
169718
169628
169480
169501
169502
169631
169860
169909
169969
169837
169621
169493
169460
169439
169499
169506
169644
169842
169881
169840
169702
169631
169497
169405
169555
169661
169732
169743
169840
169795
169632
169587
169505
169499
169595
169673
169786
169851
169788
169704
169604
169489
169306
169339
169366
169544
169726
169803
169804
169630
169424
169385
169333
169390
169390
169341
169460
169554
169586
169630
169556
169471
169338
169332
169362
169406
169523
169576
169529
169541
169291
169193
169151
169123
169278
169335
169385
169494
169561
169498
169281
169245
169166
169171
169186
169306
169370
169544
169582
169503
169348
169229
169154
169132
169219
169199
169295
169452
169566
169523
169376
169274
169203
169153
169230
169318
169470
169646
169675
169544
169348
169219
169103
169138
169226
169292
169409
169514
169573
169514
169312
169242
169119
169118
169256
169369
169498
169536
169527
169434
169302
169315
169194
169153
169259
169309
169384
169452
169483
169438
169337
169228
169173
169120
169170
169248
169370
169587
169686
169562
169384
169332
169192
169147
169101
169187
169337
169649
169704
169577
169372
169348
169246
169201
169305
169335
169355
169468
169537
169502
169311
169252
169151
169124
169273
169342
169365
169509
169570
169495
169352
169279
169287
169278
169308
169287
169353
169476
169531
169426
169280
169354
169317
169369
169299
169376
169443
169532
169581
169526
169365
169320
169249
169149
169202
169361
169554
169628
169672
169583
169404
169370
169269
169152
169147
169212
169415
169640
169716
169770
169533
169375
169325
169247
169251
169346
169416
169549
169661
169618
169387
169351
169275
169182
169263
169433
169503
169566
169656
169639
169525
169475
169411
169286
169222
169295
169356
169455
169550
169675
169502
169460
169355
169273
169284
169403
169525
169631
169634
169662
169467
169402
169345
169337
169315
169360
169503
169596
169636
169629
169490
169498
169394
169312
169272
169240
169335
169455
169520
169603
169620
169562
169471
169354
169328
169367
169417
169457
169518
169543
169460
169428
169376
169304
169295
169394
169498
169556
169575
169591
169453
169346
169242
169132
169164
169328
169463
169529
169526
169555
169366
169331
169323
169281
169158
169269
169475
169529
169576
169560
169393
169273
169237
169154
169187
169352
169514
169567
169597
169619
169479
169394
169305
169194
169116
169135
169335
169547
169614
169675
169540
169477
169368
169272
169233
169283
169328
169406
169482
169448
169324
169115
169116
169158
169261
169388
169475
169466
169568
169567
169407
169303
169229
169158
169115
169156
169261
169224
169359
169547
169584
169498
169284
169172
169160
169159
169247
169364
169398
169473
169389
169284
169301
169319
169341
169444
169546
169620
169749
169695
169558
169387
169242
169051
169009
169026
169111
169104
168994
169018
168938
168908
168902
168856
168727
168752
168951
169042
169133
169274
169228
169235
169206
169106
169131
169168
169209
169253
169351
169416
169381
169321
169281
169174
169181
169191
169163
169155
169266
169427
169354
169335
169319
169192
169089
169022
169206
169388
169491
169410
169336
169250
169180
169055
169029
169063
169206
169274
169416
169510
169427
169235
169100
169064
169023
169063
169203
169278
169422
169456
169332
169238
169163
169104
168985
169006
169182
169290
169432
169512
169353
169239
169110
168991
168882
168864
169164
169243
169295
169456
169406
169274
169177
169114
169084
169072
169255
169336
169376
169430
169331
169245
169228
169119
168970
168973
169159
169377
169462
169510
169418
169286
169172
169076
168965
168996
169283
169349
169361
169388
169263
169114
169131
169057
168968
169046
169144
169219
169283
169409
169353
169219
169218
169108
169021
168954
169035
169088
169271
169377
169311
169228
169176
169047
168935
168903
169027
169080
169227
169240
169175
169176
169222
169071
168979
168875
168973
169105
169185
169255
169213
169151
169086
169028
168914
168852
168957
169071
169201
169293
169164
169091
169044
169031
168950
168864
169068
169142
169208
169228
169203
169122
168960
168814
168807
168854
169108
169167
169175
169241
169235
169176
169053
168950
168842
168797
168961
169111
169224
169325
169260
169164
169076
168951
168839
168759
168891
168973
169064
169275
169316
169257
169120
168970
168936
168892
169008
169042
169118
169174
169177
169107
168872
168763
168755
168787
168919
169069
169148
169286
169229
169103
169001
168896
168791
168651
168738
168856
168938
169193
169274
169148
168973
168869
168794
168718
168836
168994
169112
169170
169069
168983
168972
168862
168760
168707
168853
168977
168936
169039
169047
169001
168907
168878
168726
168630
168755
168878
168939
169027
169113
169026
168851
168773
168645
168655
168751
168896
168933
168983
169018
168988
168890
168781
168710
168744
168810
168851
168789
168846
168943
169003
168921
168872
168713
168651
168703
168861
168857
168896
168864
168862
168813
168726
168710
168695
168726
168852
168851
168879
168976
169020
168956
168840
168668
168601
168690
168827
168888
168931
168935
168907
168837
168793
168629
168500
168587
168767
168822
169005
169009
168958
168945
168862
168645
168505
168563
168812
168950
168914
168951
168968
168848
168791
168701
168623
168672
168774
168827
168963
168957
168891
168842
168823
168705
168608
168720
168829
168842
168888
168900
168878
168861
168783
168656
168612
168704
168794
168885
168920
168887
168892
168768
168651
168586
168587
168697
168874
168884
168933
168949
168949
168829
168690
168570
168473
168622
168785
168823
168907
168959
168914
168898
168795
168680
168518
168511
168662
168794
168855
168849
168779
168683
168640
168660
168531
168612
168752
168818
168894
168857
168864
168758
168614
168487
168388
168554
168708
168698
168723
168843
168896
168743
168619
168500
168424
168464
168605
168676
168700
168744
168822
168688
168559
168494
168409
168411
168535
168676
168719
168647
168597
168600
168601
168520
168434
168434
168495
168535
168558
168599
168673
168568
168414
168436
168392
168383
168508
168525
168549
168657
168743
168595
168478
168420
168276
168270
168400
168456
168517
168558
168632
168589
168501
168343
168261
168311
168399
168520
168656
168635
168665
168552
168519
168542
168424
168373
168548
168725
168782
168796
168838
168713
168619
168446
168310
168291
168306
168288
168339
168361
168363
168149
168018
167887
167720
167781
167947
168063
168160
168230
168280
168154
168165
168208
168145
168201
168250
168380
168410
168487
168437
168475
168388
168300
168195
168195
168261
168417
168521
168574
168585
168454
168280
168172
168023
168064
168192
168325
168499
168520
168590
168474
168282
168247
168110
168099
168197
168288
168276
168300
168430
168455
168395
168346
168165
168095
168215
168333
168401
168436
168481
168422
168293
168175
167973
167948
168179
168318
168438
168422
168509
168467
168367
168282
168093
168074
168108
168204
168218
168400
168490
168422
168367
168341
168184
168120
168195
168294
168367
168413
168454
168438
168285
168302
168196
168133
168164
168233
168318
168398
168419
168548
168454
168330
168218
168193
168287
168379
168310
168322
168380
168391
168363
168349
168288
168267
168275
168311
168384
168447
168530
168459
168292
168132
167976
168069
168111
168277
168434
168430
168437
168379
168289
168268
168123
168083
168061
168173
168220
168307
168383
168331
168259
168222
168077
167997
168062
168131
168153
168243
168377
168381
168253
168177
167988
167910
167991
168110
168157
168184
168331
168303
168274
168231
167986
167887
167998
168235
168306
168297
168344
168350
168211
168166
168082
168033
168040
168174
168283
168356
168400
168429
168306
168216
168067
168087
168135
168237
168217
168283
168445
168366
168296
168252
168131
167946
167909
168034
168295
168505
168525
168453
168283
168243
168095
168012
168031
168164
168226
168274
168301
168315
168273
168168
168090
168056
168079
168145
168190
168252
168303
168285
168145
168063
168018
168066
168057
168156
168223
168188
168276
168325
168242
168061
167893
167955
168049
168080
168160
168216
168315
168296
168190
168086
167999
167991
167948
167998
168130
168162
168264
168360
168240
168121
168040
167950
167989
168115
168136
168125
168211
168339
168297
168132
167948
167868
167912
167964
168100
168196
168351
168346
168214
168067
167947
167907
167938
167969
168073
168113
168202
168270
168168
168055
168047
167947
167823
167841
167946
168005
168172
168222
168165
168081
167925
167827
167845
167917
167992
168032
168131
168080
167916
167761
167792
167817
167832
168072
168105
168023
168102
168096
168010
167865
167795
167795
167765
167827
167893
167908
168096
168201
168176
168035
167888
167754
167719
167749
167805
167881
168050
168215
168131
167957
167837
167776
167728
167797
167854
167856
168077
168275
168183
167981
167845
167699
167627
167746
167850
167960
168083
168070
168006
167857
167727
167626
167628
167754
167889
167926
168055
168028
167950
167839
167634
167582
167635
167690
167909
167991
168009
168032
167917
167742
167617
167621
167694
167823
167889
167891
167987
168015
167995
167836
167731
167656
167544
167531
167661
167826
167942
167998
167975
167903
167777
167709
167652
167761
167919
167936
168024
168017
167997
167872
167691
167690
167653
167789
167859
167881
168017
168039
167968
167922
167801
167646
167617
167620
167706
167773
167906
167967
167954
167804
167768
167669
167738
167778
167859
167793
167886
167924
167885
167815
167746
167555
167500
167584
167754
167866
167962
167963
167928
167766
167619
167552
167620
167757
167778
167779
167896
167977
167989
167868
167807
167787
167836
167888
167987
168002
168067
168142
168051
167956
167764
167609
167468
167529
167681
167594
167577
167559
167515
167371
167233
167184
167148
167202
167342
167442
167579
167592
167629
167549
167554
167583
167551
167554
167674
167630
167767
167836
167864
167764
167580
167422
167323
167404
167793
167880
167903
167888
167814
167701
167587
167494
167406
167402
167595
167674
167785
167818
167817
167633
167511
167459
167504
167573
167644
167607
167697
167770
167770
167610
167494
167358
167300
167387
167546
167678
167777
167742
167701
167622
167542
167508
167454
167356
167407
167512
167564
167690
167745
167661
167528
167445
167400
167341
167362
167383
167505
167638
167715
167635
167502
167357
167359
167338
167421
167459
167600
167724
167702
167639
167465
167383
167321
167352
167449
167478
167600
167727
167722
167604
167508
167457
167477
167437
167457
167481
167575
167674
167804
167761
167583
167503
167418
167372
167445
167598
167729
167684
167664
167593
167485
167458
167446
167445
167525
167512
167546
167658
167721
167642
167532
167484
167267
167128
167201
167434
167681
167786
167771
167595
167490
167448
167316
167235
167321
167321
167404
167544
167613
167537
167414
167451
167294
167221
167307
167357
167525
167623
167614
167510
167309
167272
167282
167345
167352
167392
167580
167634
167639
167539
167397
167380
167234
167240
167309
167372
167448
167503
167483
167527
167420
167348
167254
167282
167303
167377
167401
167553
167613
167551
167455
167399
167244
167267
167311
167432
167530
167638
167647
167587
167420
167390
167309
167248
167313
167348
167366
167556
167647
167600
167433
167379
167313
167230
167279
167280
167333
167502
167668
167615
167436
167354
167287
167228
167200
167256
167371
167513
167586
167620
167476
167335
167262
167141
167122
167278
167489
167553
167602
167508
167366
167379
167203
167102
167189
167352
167464
167569
167573
167529
167439
167439
167328
167251
167160
167197
167267
167478
167599
167695
167570
167460
167346
167227
167219
167255
167320
167468
167642
167590
167385
167250
167308
167191
167191
167396
167478
167519
167568
167542
167420
167310
167214
167118
167191
167277
167307
167384
167581
167537
167296
167262
167280
167277
167236
167286
167356
167435
167459
167439
167225
167186
167100
167072
167087
167174
167320
167400
167477
167483
167324
167279
167142
167049
167030
167086
167133
167271
167340
167386
167278
167260
167143
167114
167107
167210
167297
167346
167337
167347
167200
167203
167098
167056
167077
167201
167330
167418
167438
167428
167297
167260
167134
167076
167069
167063
167155
167207
167309
167373
167221
167173
167125
167095
167111
167172
167205
167267
167317
167336
167293
167268
167147
166936
166908
166989
167118
167286
167348
167333
167175
167100
166997
166888
166889
167009
167172
167262
167290
167275
167173
167142
167131
166947
166885
166945
167076
167179
167258
167245
167031
166936
166944
166889
166924
166973
167066
167114
167098
167134
167061
166964
166876
166803
166961
167051
167053
167132
167209
167200
167086
166966
166863
166824
166843
166867
166934
167030
167067
167107
167019
167018
166936
166825
166781
166834
166910
166975
167040
167045
166992
166947
166879
166837
166896
166929
166965
167035
167108
167112
166962
166798
166699
166780
166804
166867
166970
166997
166997
167003
166901
166908
166879
166692
166643
166641
166795
166968
167086
167058
166890
166788
166791
166688
166632
166681
166801
166905
166992
167064
166986
166872
166778
166703
166676
166709
166835
166944
167094
167155
167001
166900
166838
166833
166820
166845
166993
167104
167171
167179
167076
166851
166690
166492
166379
166284
166408
166462
166658
166633
166435
166368
166393
166254
166121
166174
166361
166444
166614
166650
166639
166568
166611
166651
166658
166596
166695
166707
166760
166881
166834
166727
166630
166541
166476
166467
166620
166736
166883
166846
166738
166671
166612
166635
166517
166471
166596
166726
166799
166798
166729
166706
166606
166486
166400
166475
166632
166759
166814
166825
166781
166701
166628
166514
166486
166517
166654
166726
166748
166785
166778
166727
166649
166561
166457
166452
166622
166734
166832
166895
166886
166701
166619
166576
166521
166498
166565
166632
166752
166838
166842
166722
166615
166489
166443
166464
166673
166748
166781
166876
166889
166765
166667
166500
166395
166314
166479
166717
166918
166921
166828
166705
166599
166628
166574
166531
166607
166652
166748
166797
166854
166730
166617
166469
166393
166297
166581
166749
166783
166791
166653
166571
166561
166471
166430
166336
166489
166482
166544
166669
166663
166741
166663
166456
166340
166297
166442
166509
166565
166603
166574
166547
166406
166431
166434
166309
166386
166517
166607
166655
166609
166530
166428
166357
166209
166211
166399
166511
166609
166703
166612
166542
166431
166362
166286
166201
166251
166342
166426
166604
166715
166640
166559
166415
166307
166291
166373
166489
166554
166534
166544
166537
166431
166274
166217
166180
166343
166574
166637
166611
166548
166467
166406
166269
166224
166159
166301
166415
166450
166574
166543
166489
166279
166183
166151
166237
166259
166357
166428
166423
166386
166375
166286
166149
166076
166089
166192
166422
166516
166514
166462
166412
166254
166177
166020
165930
166103
166317
166471
166528
166427
166338
166196
166192
166187
166120
166201
166298
166371
166437
166491
166447
166277
166183
166099
166125
166150
166179
166261
166452
166569
166498
166389
166250
166109
165992
166026
166203
166308
166433
166478
166355
166261
166202
166070
166048
166150
166205
166233
166329
166363
166284
166069
165970
165953
165996
166125
166300
166330
166373
166306
166230
166177
166087
166024
166019
166004
166107
166166
166233
166260
166287
166173
166161
166004
165894
165952
166041
166010
166093
166154
166203
166085
166061
166026
165882
165887
166033
166110
166233
166216
166111
166026
166021
165959
165822
165853
165964
166026
166132
166149
166140
166086
166084
165975
165884
165856
166026
166115
166175
166159
166150
165984
165920
165825
165816
165934
166069
166171
166227
166198
166148
166022
165923
165895
165766
165845
166002
166143
166204
166176
166212
166151
166095
165986
165821
165774
165888
166013
166122
166144
166250
166095
166005
165930
165824
165795
165934
166045
166209
166253
166227
166080
166013
165928
165863
165914
166031
166026
166073
166137
166189
166136
165993
165933
165859
165846
165951
165961
165986
166028
166198
166115
165964
165991
165885
165869
165946
166018
166065
166142
166192
166150
165941
165849
165853
165887
165971
166037
166064
166133
166152
166017
165955
165845
165666
165696
165885
166030
166084
166167
166170
166029
166010
165867
165675
165656
165781
165883
165929
165951
166041
165955
165821
165930
165814
165759
165874
166025
166025
166107
166141
166041
165910
165812
165684
165694
165844
165948
166001
166044
166058
165971
165846
165769
165659
165656
165708
165768
165896
165996
166095
165945
165808
165724
165589
165542
165637
165734
165861
165968
166031
165869
165716
165643
165563
165690
165740
165843
165927
165913
165942
165816
165736
165642
165465
165442
165571
165773
165877
165847
165832
165866
165830
165812
165746
165705
165705
165757
165800
165888
166033
166096
166045
165985
165800
165684
165707
165815
165828
165764
165812
165672
165440
165224
164977
164926
165046
165202
165408
165540
165583
165583
165464
165360
165187
165216
165376
165525
165634
165811
165906
165807
165691
165588
165380
165293
165298
165474
165707
165713
165742
165736
165600
165486
165394
165401
165432
165455
165548
165648
165735
165695
165607
165517
165322
165329
165329
165388
165502
165672
165767
165739
165585
165457
165349
165364
165401
165429
165407
165481
165629
165690
165621
165503
165338
165311
165360
165472
165511
165502
165572
165522
165402
165443
165280
165273
165252
165342
165403
165581
165722
165639
165477
165426
165347
165322
165354
165392
165430
165459
165537
165531
165357
165315
165278
165415
165421
165498
165518
165612
165680
165632
165454
165336
165229
165205
165271
165491
165562
165609
165655
165637
165538
165454
165294
165165
165162
165407
165612
165655
165715
165647
165486
165423
165253
165221
165241
165316
165305
165400
165456
165572
165571
165441
165276
165219
165225
165312
165443
165386
165460
165474
165328
165252
165153
165087
165165
165268
165272
165276
165400
165406
165296
165200
165055
165016
165043
165172
165272
165283
165390
165450
165232
165152
165071
165021
165095
165218
165232
165267
165363
165293
165157
165176
165183
165111
165117
165183
165243
165292
165334
165387
165269
165048
164957
164949
165007
165116
165128
165185
165396
165429
165257
165119
164938
164927
164947
165167
165202
165174
165282
165237
165173
165069
164936
164860
164851
164937
165024
165077
165090
165214
165109
165004
164972
164846
164852
164937
165051
165132
165181
165203
165139
165011
164878
164809
164799
164881
164889
164904
164992
165041
165038
165044
164850
164741
164696
164812
164957
164975
165107
165162
164974
164893
164810
164698
164674
164777
164987
165080
165064
165103
164992
164884
164756
164700
164693
164767
164850
164851
164961
165042
165030
164968
164723
164669
164749
164854
164900
164901
164984
164992
164920
164794
164748
164764
164768
164769
164806
164801
165028
165100
164974
164781
164611
164580
164594
164702
164790
164781
164934
165074
164978
164756
164706
164664
164682
164705
164835
164907
164906
164862
164830
164724
164681
164634
164600
164635
164764
164931
164979
164990
164907
164747
164675
164543
164539
164617
164801
164852
164926
164932
164870
164652
164510
164630
164723
164790
164894
164892
165006
165026
164936
164827
164680
164601
164572
164647
164735
164778
164917
165005
165020
164828
164683
164597
164615
164588
164679
164729
164881
164940
164994
164789
164710
164572
164522
164601
164758
164769
164848
164877
164835
164751
164644
164615
164602
164575
164593
164593
164736
164864
164781
164635
164533
164599
164518
164545
164650
164711
164775
164824
164806
164661
164552
164482
164437
164546
164645
164651
164767
164868
164823
164652
164495
164436
164368
164408
164545
164595
164743
164761
164719
164595
164639
164566
164384
164455
164610
164674
164742
164806
164782
164627
164554
164510
164482
164414
164510
164601
164851
164921
164827
164644
164533
164535
164429
164406
164561
164553
164683
164716
164710
164579
164482
164473
164391
164401
164447
164531
164671
164734
164691
164593
164447
164371
164289
164257
164407
164470
164557
164595
164547
164470
164400
164391
164325
164232
164350
164451
164580
164591
164546
164496
164367
164323
164298
164243
164282
164342
164427
164649
164753
164679
164546
164453
164305
164280
164487
164652
164819
164936
164886
164675
164545
164422
164307
164241
164322
164226
164304
164392
164386
164177
163874
163820
163776
163807
163941
164013
164060
164179
164252
164137
164009
164101
164131
164125
164225
164269
164312
164340
164332
164333
164373
164394
164196
164078
164150
164229
164308
164420
164429
164383
164318
164295
164138
164079
164129
164205
164331
164354
164332
164268
164209
164159
164168
164094
164172
164202
164293
164394
164399
164320
164170
164071
163928
163916
163968
164227
164445
164532
164415
164357
164235
164134
163990
164009
164132
164248
164350
164431
164481
164374
164182
164094
164027
164000
164024
164083
164194
164322
164423
164346
164182
164137
164013
164080
164131
164173
164214
164314
164397
164393
164213
164124
164051
164030
164003
164092
164256
164387
164386
164247
164197
164164
164040
163921
163968
164163
164402
164483
164455
164374
164173
164140
164091
163973
163949
164001
164156
164362
164455
164377
164236
164139
164018
163950
163981
164030
164147
164208
164232
164182
164006
163977
163930
163912
163923
164008
164048
164107
164226
164097
164039
164029
163902
163793
163742
163825
163998
164141
164206
164124
163965
163890
163799
163673
163657
163782
163977
164060
164116
164079
163896
163804
163764
163780
163790
163754
163802
163918
164070
164146
163926
163832
163768
163676
163601
163747
163932
164055
164093
163977
163807
163850
163767
163713
163752
163814
163892
163925
163998
164052
163943
163894
163822
163771
163763
163802
163867
163937
163999
164065
163931
163822
163775
163654
163603
163766
163876
163937
164030
163992
163825
163809
163663
163550
163613
163721
163848
163878
164005
164021
163789
163747
163647
163549
163529
163603
163748
163895
163939
163865
163638
163659
163657
163664
163607
163697
163787
163850
163930
163900
163710
163648
163561
163500
163599
163648
163836
163878
163907
163944
163745
163679
163580
163533
163541
163590
163779
163819
163814
163824
163651
163587
163587
163519
163541
163618
163669
163731
163804
163806
163650
163562
163475
163389
163348
163448
163613
163736
163788
163766
163556
163522
163546
163488
163391
163471
163536
163540
163547
163555
163486
163545
163455
163344
163376
163463
163533
163599
163719
163723
163609
163496
163430
163342
163297
163347
163412
163502
163623
163689
163627
163536
163394
163204
163224
163360
163523
163587
163676
163742
163585
163467
163380
163312
163272
163338
163496
163571
163605
163671
163609
163549
163431
163288
163314
163319
163425
163429
163519
163663
163639
163546
163434
163310
163254
163255
163368
163460
163485
163521
163563
163450
163354
163248
163206
163242
163487
163566
163639
163514
163402
163340
163303
163275
163209
163211
163302
163362
163428
163477
163460
163358
163251
163245
163234
163241
163287
163333
163398
163435
163309
163236
163237
163189
163153
163180
163288
163397
163464
163438
163384
163318
163252
163161
163143
163111
163239
163301
163483
163564
163396
163326
163237
163082
163075
163143
163209
163202
163317
163447
163352
163215
163275
163238
163243
163236
163265
163299
163392
163458
163409
163292
163191
163101
163039
163009
163144
163249
163384
163460
163436
163303
163200
163146
163043
163021
163157
163264
163372
163548
163441
163267
163197
163146
163185
163040
163071
163173
163221
163278
163204
163212
163265
163128
162973
162938
163136
163223
163358
163405
163330
163211
163166
163099
163039
162949
163133
163225
163337
163340
163185
163016
162963
162906
162990
163133
163247
163263
163322
163346
163267
163107
163058
162981
162858
162789
162972
163112
163262
163379
163391
163356
163217
163022
162989
162985
163171
163296
163358
163413
163436
163287
163189
163056
162932
162765
162888
163086
163077
162991
162799
162674
162579
162413
162378
162439
162609
162720
162825
162922
162902
162785
162708
162707
162652
162666
162877
162952
163001
163082
163046
162964
162895
162820
162666
162627
162753
162825
162949
163073
163067
162943
162939
162853
162687
162620
162776
162879
162946
162956
162895
162806
162744
162775
162819
162739
162762
162836
162906
163028
162960
162895
162835
162751
162670
162584
162705
162762
162910
163046
163117
163015
162859
162692
162623
162708
162818
162813
162883
162986
162967
162857
162816
162756
162681
162730
162860
162844
162908
163031
162998
162927
162822
162814
162724
162660
162745
162849
162908
163041
163143
163096
162815
162652
162570
162536
162716
162885
162996
163088
163045
162928
162873
162820
162827
162737
162770
162852
162897
162975
163078
163072
162869
162756
162664
162673
162744
162794
162884
162962
162925
162850
162805
162761
162581
162400
162523
162799
162964
163070
162969
162889
162749
162620
162493
162502
162678
162816
162822
162827
162840
162852
162742
162616
162496
162403
162407
162605
162665
162854
162856
162772
162621
162514
162464
162374
162536
162683
162792
162815
162754
162753
162657
162570
162521
162430
162480
162602
162624
162704
162701
162684
162665
162694
162580
162463
162507
162609
162679
162810
162793
162726
162633
162500
162333
162298
162424
162597
162758
162902
162845
162717
162557
162542
162483
162438
162498
162590
162676
162765
162672
162638
162549
162523
162441
162399
162445
162472
162497
162619
162741
162713
162534
162495
162372
162323
162407
162467
162461
162574
162646
162568
162462
162487
162389
162361
162366
162427
162472
162568
162564
162617
162516
162492
162394
162231
162263
162406
162513
162563
162617
162604
162448
162415
162342
162247
162393
162482
162501
162650
162663
162639
162563
162496
162370
162148
162247
162412
162529
162558
162535
162499
162374
162363
162365
162216
162292
162397
162376
162461
162558
162628
162461
162342
162230
162109
162185
162306
162444
162580
162552
162495
162357
162341
162294
162194
162136
162278
162356
162418
162418
162494
162403
162313
162313
162192
162128
162248
162417
162523
162519
162491
162262
162115
162059
162090
162213
162421
162372
162424
162515
162493
162386
162322
162213
162133
162177
162299
162400
162521
162513
162543
162370
162189
162120
162128
162164
162263
162351
162468
162423
162462
162364
162291
162239
162183
162284
162317
162347
162419
162473
162416
162297
162241
162197
162128
162099
162157
162348
162479
162464
162504
162388
162215
162146
162043
162047
162093
162225
162339
162420
162505
162407
162248
162170
162095
162112
162147
162272
162384
162389
162359
162255
162166
162112
161994
161978
162131
162331
162449
162438
162487
162414
162341
162213
162033
161953
162058
162158
162230
162298
162522
162502
162312
162200
162057
161988
161974
162114
162308
162416
162563
162444
162345
162270
162086
162037
162110
162251
162345
162349
162413
162328
162204
162144
161985
161981
162132
162249
162266
162304
162375
162342
162215
162113
161921
161964
161988
162143
162272
162316
162361
162312
162136
162049
161971
162010
162178
162296
162329
162332
162383
162363
162200
162173
162027
161937
162013
162216
162334
162426
162466
162334
162204
162121
161940
161925
162083
162165
162312
162451
162510
162377
162252
162194
162112
162192
162340
162430
162498
162556
162614
162497
162293
162212
162010
161841
161837
162014
162032
162003
161991
161920
161775
161682
161525
161490
161616
161710
161917
162022
162097
162078
161920
161841
161751
161874
161958
162041
162077
162120
162162
162147
162137
162103
161934
161923
161919
161959
162110
162164
162180
162175
162091
162018
161872
161781
161828
162007
162159
162276
162341
162263
162124
161998
161859
161823
161869
162101
162237
162287
162285
162190
162081
162014
161852
161786
161907
162068
162057
162151
162269
162204
162016
161987
161878
161908
161945
161971
161989
162121
162287
162293
162119
162015
161882
161868
161892
162037
162092
162151
162189
162142
162008
161969
161894
161838
161831
161893
161985
162169
162308
162252
162120
162048
161874
161804
161878
162047
162069
162083
162128
162124
162105
162039
161944
161818
161837
161965
162028
162085
162231
162289
162131
162055
161877
161827
161855
161968
162013
162007
162098
162124
162086
162135
161943
161871
161886
162007
162093
161994
162061
162100
162105
162033
161849
161696
161640
161719
161872
162150
162236
162171
162063
161931
161777
161746
161716
161738
161811
161992
162177
162151
161997
161980
161882
161782
161764
161875
161927
161908
162127
162191
162031
161908
161786
161757
161747
161824
161920
162010
162150
162080
161949
161872
161765
161681
161581
161706
161953
162080
162234
162195
162071
161908
161786
161691
161683
161819
161998
161988
162076
162106
161937
161828
161803
161704
161734
161900
161987
161825
161940
162024
161967
161805
161849
161834
161728
161801
161901
161938
162014
162024
161969
161868
161741
161689
161708
161760
161839
161858
161982
162020
162016
161845
161685
161598
161594
161695
161820
161868
162081
162043
161958
161862
161809
161698
161589
161657
161792
161818
161916
162013
162010
161875
161727
161676
161748
161776
161819
161849
161892
161932
161873
161829
161708
161569
161500
161561
161813
161971
162040
161985
161944
161789
161669
161588
161522
161587
161723
161779
161873
161996
161943
161734
161569
161500
161444
161565
161754
161764
161926
162039
161929
161792
161606
161483
161392
161425
161621
161716
161880
161958
161919
161746
161637
161566
161570
161609
161638
161611
161748
161820
161865
161775
161630
161489
161413
161477
161641
161714
161876
161849
161802
161700
161583
161465
161464
161522
161712
161683
161761
161796
161731
161588
161485
161434
161460
161584
161729
161679
161723
161752
161702
161604
161528
161524
161485
161441
161602
161589
161752
161824
161712
161606
161575
161478
161471
161492
161550
161612
161751
161808
161771
161659
161518
161454
161396
161398
161498
161538
161649
161711
161710
161592
161459
161388
161407
161554
161637
161591
161666
161671
161645
161543
161491
161501
161442
161460
161559
161598
161666
161715
161690
161624
161567
161459
161399
161417
161521
161487
161467
161543
161674
161715
161645
161536
161431
161342
161490
161540
161615
161649
161648
161603
161540
161476
161402
161409
161447
161528
161594
161710
161701
161579
161497
161477
161549
161457
161491
161522
161682
161745
161693
161641
161463
161453
161414
161346
161442
161558
161752
161809
161759
161624
161528
161450
161349
161344
161391
161404
161502
161675
161762
161651
161529
161449
161343
161295
161378
161468
161571
161686
161603
161417
161301
161310
161324
161407
161465
161580
161620
161669
161583
161483
161393
161383
161338
161290
161348
161351
161488
161648
161711
161549
161453
161398
161265
161219
161264
161327
161508
161754
161835
161722
161527
161415
161385
161415
161530
161669
161751
161879
161827
161734
161541
161358
161243
161202
161223
161234
161153
161163
161161
161121
160971
160955
160854
160874
161051
161180
161251
161313
161350
161350
161258
161217
161151
161170
161230
161262
161368
161614
161575
161557
161494
161415
161292
161253
161341
161365
161492
161515
161526
161438
161280
161275
161177
161213
161365
161519
161560
161612
161522
161462
161356
161340
161351
161360
161323
161329
161388
161575
161636
161645
161394
161350
161311
161278
161324
161425
161448
161538
161546
161501
161290
161379
161384
161350
161346
161389
161442
161528
161582
161566
161466
161324
161198
161211
161275
161372
161530
161663
161744
161644
161444
161431
161374
161300
161258
161320
161384
161509
161652
161669
161483
161388
161258
161334
161385
161475
161565
161625
161705
161645
161455
161427
161320
161219
161268
161391
161590
161682
161808
161787
161622
161528
161396
161328
161320
161367
161499
161634
161704
161666
161508
161493
161421
161318
161260
161382
161574
161608
161711
161752
161536
161436
161370
161361
161496
161548
161554
161592
161630
161731
161624
161599
161448
161254
161324
161427
161511
161537
161608
161627
161552
161562
161476
161388
161363
161450
161555
161572
161662
161674
161641
161612
161451
161428
161414
161474
161537
161642
161729
161743
161646
161533
161371
161278
161314
161396
161584
161736
161866
161779
161611
161610
161554
161402
161410
161510
161620
161753
161859
161879
161680
161659
161566
161441
161384
161447
161614
161718
161730
161806
161711
161689
161645
161529
161473
161511
161612
161662
161694
161853
161849
161739
161592
161425
161315
161374
161583
161702
161911
161968
161809
161717
161618
161439
161367
161442
161563
161721
161842
161933
161829
161738
161635
161571
161508
161569
161651
161703
161823
161872
161754
161663
161501
161377
161501
161663
161763
161854
161880
161842
161769
161685
161633
161560
161533
161581
161563
161691
161934
161960
161807
161676
161638
161590
161606
161613
161801
161801
161840
161839
161672
161590
161574
161556
161603
161586
161742
161796
161839
161895
161799
161693
161557
161613
161671
161695
161826
161843
161913
161871
161728
161698
161671
161631
161600
161553
161779
161860
161891
161953
161830
161746
161665
161530
161620
161694
161801
161889
161953
161944
161867
161835
161800
161694
161585
161603
161782
161873
161977
161996
161878
161773
161700
161593
161599
161621
161761
161872
162037
162059
161990
161868
161745
161641
161641
161657
161786
161803
161907
162006
161952
161879
161821
161706
161642
161719
161900
161968
162028
162069
162044
161940
161841
161768
161717
161810
161925
161954
162059
162077
162007
161837
161835
161787
161820
161823
161874
161971
162087
162086
161965
161958
161830
161668
161596
161775
162064
162177
162235
162239
162145
162043
161920
161797
161792
161814
161912
162006
162091
162242
162156
162051
161979
161835
161755
161801
161944
162026
162131
162225
162209
162168
162073
161988
161876
161833
161933
162038
162191
162200
162183
162153
162137
162012
161851
161855
162028
162088
162248
162329
162284
162160
162073
161942
161831
161828
162001
162086
162342
162337
162291
162215
162148
162107
162013
161917
162083
162171
162193
162353
162430
162373
162243
162124
162064
162074
162166
162201
162282
162301
162288
162254
162208
162167
162075
162056
162274
162319
162376
162477
162454
162323
162234
162117
162043
161992
162080
162229
162360
162447
162338
162287
162293
162213
162164
162049
162203
162296
162379
162437
162429
162324
162297
162380
162307
162196
162341
162346
162431
162530
162599
162518
162562
162547
162438
162374
162401
162393
162440
162452
162339
162148
162019
161907
161805
161766
161934
161953
161966
161987
161971
161934
161955
161904
161935
161924
162092
162184
162292
162443
162480
162452
162326
162305
162265
162186
162301
162400
162457
162487
162436
162413
162316
162323
162209
162107
162252
162378
162398
162412
162406
162459
162413
162299
162189
162166
162290
162378
162425
162463
162485
162429
162296
162301
162191
162209
162310
162436
162468
162506
162538
162509
162420
162317
162189
162223
162219
162395
162525
162623
162597
162528
162435
162303
162231
162207
162311
162316
162422
162516
162498
162474
162462
162356
162220
162121
162115
162283
162483
162657
162612
162566
162444
162345
162218
162155
162197
162350
162493
162649
162586
162559
162496
162347
162234
162212
162230
162359
162428
162518
162532
162544
162432
162364
162219
162152
162274
162437
162460
162486
162504
162514
162391
162217
162185
162257
162314
162398
162464
162522
162538
162520
162408
162269
162168
162115
162261
162351
162376
162439
162544
162490
162362
162287
162245
162135
162208
162225
162357
162412
162476
162469
162351
162359
162296
162172
162238
162327
162399
162512
162528
162470
162363
162208
162066
162021
162145
162311
162364
162480
162515
162445
162311
162186
162107
162083
162131
162126
162133
162348
162473
162567
162540
162354
162220
162099
162101
162237
162293
162439
162513
162428
162243
162148
162137
162148
162187
162314
162318
162364
162422
162436
162342
162248
162181
162171
162149
162328
162351
162410
162497
162466
162229
162166
162216
162118
162141
162274
162310
162421
162433
162432
162247
162106
162017
161976
162088
162195
162209
162315
162479
162513
162387
162286
162177
162082
162146
162285
162286
162319
162325
162341
162268
162239
162205
162160
162152
162290
162365
162449
162452
162489
162338
162253
162159
162001
162034
162161
162309
162437
162469
162509
162353
162260
162156
162060
162074
162210
162319
162399
162427
162437
162293
162241
162123
162011
161988
162065
162166
162281
162350
162365
162329
162181
162125
161989
161978
162177
162231
162285
162301
162369
162262
162160
162019
161787
161866
162178
162299
162382
162346
162343
162235
162144
162023
161991
162001
162043
162030
162129
162221
162337
162357
162268
162148
161980
161940
162055
162213
162270
162264
162270
162199
162104
161988
161900
161953
162025
162156
162219
162292
162307
162277
162188
162100
161963
161852
161967
162175
162259
162240
162265
162224
162135
162055
161962
161896
161996
162122
162290
162292
162235
162134
162099
162121
161926
161963
162048
162095
162146
162276
162365
162200
162028
162033
161948
161979
162081
162114
162204
162286
162358
162258
162087
161985
161859
161849
161987
162100
162143
162236
162278
162145
161978
161853
161779
161873
162042
162217
162120
162089
162127
162122
162046
161935
161940
161986
161990
162012
162044
162099
162171
162160
162060
161970
161836
161842
161922
162071
162237
162209
162213
162126
162071
161948
161863
161885
161921
162072
162174
162286
162312
162213
162104
162079
161931
161864
161861
161985
162074
162146
162254
162195
162084
161992
161825
161889
161940
162011
162073
162105
162244
162172
161951
161883
161774
161813
161902
162001
161994
162042
162171
162145
162039
161937
161829
161794
161861
161941
162063
162105
162158
162103
161933
161924
161791
161810
161945
162044
162066
162088
162174
162122
162003
161959
161802
161891
161981
162138
162257
162348
162473
162306
162146
162022
161906
161900
161922
161934
161818
161846
161965
161909
161784
161573
161406
161315
161397
161567
161702
161702
161733
161747
161676
161611
161563
161640
161709
161930
161936
162015
162077
162037
161898
161885
161742
161661
161655
161808
161877
162003
162119
162094
161916
161794
161670
161690
161743
161821
161849
161911
162028
161987
161863
161817
161636
161633
161636
161827
161957
162055
162144
162111
161923
161826
161704
161641
161601
161701
161827
161956
162206
162205
162007
161912
161743
161702
161715
161840
161943
161995
162065
162090
161925
161828
161734
161786
161753
161847
161965
162029
162081
162038
161843
161740
161665
161688
161815
161922
161927
161918
161983
161948
161897
161904
161893
161724
161637
161707
161840
161936
162087
162129
162022
161929
161903
161802
161732
161844
161906
161909
161970
162000
161861
161853
161816
161797
161798
161847
161888
161869
161917
161906
161911
161949
161845
161659
161602
161766
161875
161826
162010
162054
162003
161929
161754
161677
161605
161800
161885
161867
162022
162015
161903
161782
161601
161594
161645
161711
161806
161782
161853
161896
161901
161874
161811
161676
161596
161618
161717
161711
161791
161816
161795
161845
161744
161680
161575
161644
161740
161770
161898
161903
161774
161697
161629
161629
161661
161717
161727
161738
161827
161913
161886
161841
161615
161551
161600
161643
161748
161786
161876
161899
161881
161837
161634
161542
161579
161638
161730
161723
161799
161913
161911
161796
161658
161586
161528
161526
161629
161797
161988
161978
161906
161818
161695
161558
161494
161528
161688
161773
161895
161966
161892
161753
161657
161587
161543
161531
161623
161674
161884
161893
161782
161725
161683
161596
161525
161470
161541
161682
161920
161943
161800
161675
161598
161520
161548
161619
161736
161774
161849
161875
161760
161615
161485
161459
161471
161555
161683
161673
161835
161937
161813
161725
161614
161437
161347
161392
161705
161802
161954
162007
161831
161696
161537
161506
161494
161553
161655
161595
161681
161735
161765
161684
161612
161527
161449
161501
161668
161657
161758
161746
161676
161551
161505
161497
161357
161374
161482
161560
161611
161649
161739
161643
161634
161522
161425
161410
161455
161478
161643
161719
161661
161575
161523
161516
161430
161401
161448
161466
161622
161685
161728
161618
161593
161500
161376
161350
161456
161483
161557
161607
161611
161568
161521
161431
161357
161364
161474
161499
161598
161651
161797
161736
161552
161423
161334
161326
161463
161463
161616
161758
161680
161504
161479
161438
161318
161389
161490
161545
161575
161666
161686
161541
161454
161425
161348
161335
161496
161459
161621
161666
161706
161653
161474
161327
161236
161293
161385
161464
161526
161624
161620
161516
161429
161325
161198
161216
161350
161432
161510
161595
161654
161602
161463
161352
161229
161192
161343
161334
161387
161440
161557
161517
161423
161367
161212
161168
161289
161328
161425
161578
161673
161530
161401
161295
161235
161183
161343
161414
161529
161588
161662
161562
161451
161334
161224
161256
161375
161451
161522
161546
161598
161556
161408
161302
161224
161209
161304
161361
161425
161520
161518
161466
161370
161268
161209
161193
161304
161352
161396
161454
161432
161352
161330
161322
161168
161091
161211
161251
161373
161481
161427
161294
161217
161155
161051
161017
161084
161250
161473
161543
161568
161462
161330
161296
161325
161327
161334
161390
161499
161648
161639
161501
161277
161133
161058
160965
160963
160887
160908
160931
160961
160924
160725
160676
160631
160674
160769
160902
160993
161154
161241
161217
161099
161120
161134
161090
161120
161131
161193
161282
161411
161379
161237
161165
161025
161055
161141
161171
161286
161367
161331
161230
161062
161022
160981
160990
161089
161204
161326
161488
161379
161347
161176
161119
160950
160908
161069
161209
161309
161408
161483
161383
161214
161214
161093
161021
161014
161062
161092
161268
161456
161414
161277
161199
161085
161080
161086
161149
161163
161214
161313
161282
161208
161317
161132
160980
160959
161120
161170
161309
161423
161288
161086
161107
161069
160988
161035
161137
161238
161320
161401
161340
161169
161127
161021
160992
161027
161073
161183
161348
161443
161352
161144
161169
161089
161083
161051
161046
161119
161368
161568
161485
161293
161214
161068
161035
161117
161260
161310
161414
161411
161352
161205
161138
160985
160971
161033
161168
161279
161382
161502
161434
161179
161131
161087
161082
161088
161156
161247
161320
161352
161360
161247
161258
161167
161038
161014
161075
161156
161214
161275
161309
161147
161116
161060
161006
160984
161086
161190
161307
161346
161299
161133
161014
160935
160909
160978
161106
161199
161251
161258
161236
161064
161076
161100
161062
161052
161082
161170
161262
161327
161277
161049
160977
160956
160930
160981
161079
161188
161269
161316
161413
161314
161224
161141
160944
160851
160852
161043
161222
161406
161563
161359
161208
161098
161012
161022
161081
161169
161212
161262
161256
161157
161157
161084
160961
160873
160945
161076
161272
161383
161398
161179
161026
160928
160870
160968
161100
161184
161288
161347
161389
161201
161085
160991
160962
160891
160975
161183
161276
161369
161296
161102
161051
161091
161108
161053
161004
161063
161155
161275
161505
161282
161138
161008
160974
160935
160993
161207
161264
161270
161221
161034
161058
161156
161080
161031
160948
161073
161194
161242
161275
161190
161131
161064
160940
160926
160968
161098
161107
161177
161312
161289
161146
161035
160931
160893
160966
161050
161060
161100
161151
161199
161172
161131
160971
160931
160934
161035
161059
161209
161278
161190
161102
160995
160882
160841
160960
161057
161062
161104
161150
161078
161050
160931
160908
160966
160970
160980
161098
161174
161142
161043
161012
160951
160871
160829
160880
160996
161003
161018
161156
161114
161009
160917
160811
160751
160807
160991
161067
161079
161005
160967
160956
160894
160792
160695
160659
160785
160853
160901
160983
160954
160918
160908
160820
160716
160685
160837
160877
160979
161064
160906
160842
160794
160540
160520
160568
160820
160924
160990
161017
161000
160830
160720
160622
160590
160681
160753
160818
160982
161075
161018
160864
160788
160662
160582
160541
160664
160712
160833
161018
160994
160863
160848
160678
160638
160636
160786
160809
160859
160916
160879
160862
160771
160613
160533
160516
160654
160705
160830
160921
160965
160799
160665
160561
160560
160474
160598
160732
160851
161041
160833
160628
160649
160591
160491
160498
160647
160747
160781
160837
160796
160772
160676
160597
160582
160528
160641
160744
160851
160944
160762
160739
160631
160532
160478
160511
160691
160805
160850
160892
160904
160868
160841
160793
160742
160729
160923
160956
160987
161039
160875
160654
160566
160485
160290
160203
160231
160240
160246
160364
160390
160360
160221
160034
160014
160118
160425
160601
160686
160728
160726
160698
160533
160473
160476
160450
160563
160635
160690
160712
160694
160667
160650
160560
160445
160375
160524
160649
160750
160780
160736
160633
160545
160397
160344
160403
160506
160679
160697
160688
160661
160612
160612
160511
160374
160365
160456
160648
160696
160650
160684
160639
160568
160462
160391
160425
160569
160642
160626
160667
160713
160699
160626
160520
160457
160325
160396
160555
160633
160682
160649
160577
160520
160487
160465
160323
160405
160502
160537
160631
160653
160578
160419
160295
160205
160243
160522
160665
160663
160682
160675
160637
160498
160326
160243
160191
160405
160569
160678
160791
160755
160720
160556
160448
160348
160300
160419
160515
160618
160722
160720
160681
160562
160489
160349
160313
160397
160457
160519
160708
160680
160597
160508
160410
160349
160238
160264
160391
160474
160588
160640
160703
160550
160369
160246
160154
160247
160368
160448
160494
160492
160493
160393
160412
160345
160303
160271
160326
160438
160569
160543
160534
160450
160375
160358
160270
160320
160335
160421
160489
160538
160633
160527
160357
160177
160180
160219
160382
160499
160595
160552
160478
160300
160189
160109
160104
160236
160466
160607
160653
160628
160523
160360
160256
160157
160149
160293
160525
160591
160653
160657
160583
160448
160342
160283
160243
160266
160313
160405
160586
160679
160615
160434
160314
160205
160263
160395
160416
160411
160391
160474
160486
160516
160521
160358
160146
160221
160343
160429
160554
160464
160475
160385
160250
160245
160141
160108
160186
160319
160415
160510
160518
160351
160272
160164
160080
160177
160332
160440
160521
160499
160458
160263
160202
160166
160142
160181
160249
160314
160402
160469
160485
160296
160198
160021
160075
160155
160227
160289
160343
160339
160320
160231
160205
160061
159974
160000
160170
160154
160226
160335
160379
160314
160214
160028
159902
160009
160093
160147
160259
160378
160402
160264
160117
159983
159847
159884
159994
160119
160181
160285
160474
160291
160075
159991
159862
159889
160089
160094
160155
160224
160296
160252
160134
160046
159918
159876
160009
160126
160248
160203
160224
160071
160000
159965
159806
159885
159993
160094
160193
160219
160230
160121
160036
159971
159911
159902
159970
159992
160053
160180
160249
160130
160021
159876
159744
159765
159895
160028
160219
160256
160257
160197
160075
159925
159744
159728
159862
159988
160063
160125
160188
160076
159993
159869
159760
159780
159856
159999
160111
160147
160184
160046
159876
159857
159798
159810
159828
159912
159999
160050
160118
160036
159947
159860
159744
159744
159791
159825
159883
159961
160075
160134
160107
160023
159843
159813
159873
159952
160016
160036
160080
160049
159925
159908
159808
159798
159850
159943
160014
160098
160160
160062
159947
159889
159798
159817
159823
159910
160067
160198
160227
160084
159988
159942
159791
159704
159792
159906
160021
160163
160235
160205
160014
159948
159785
159763
159840
159977
160003
160025
160111
160045
159888
159818
159709
159659
159805
159923
159983
160016
160080
160060
159960
159905
159714
159665
159750
159932
159938
160034
160177
160106
159920
159807
159641
159592
159705
159843
159950
160018
159990
159882
159846
159872
159913
159900
159895
159969
160004
160133
160230
160246
160082
160028
159894
159842
159880
159931
159903
159822
159860
159853
159678
159507
159307
159159
159241
159388
159443
159425
159547
159582
159529
159530
159393
159329
159345
159570
159709
159809
160006
159919
159801
159643
159655
159633
159595
159681
159710
159762
159848
159892
159731
159633
159534
159532
159641
159740
159753
159806
159845
159757
159700
159602
159499
159506
159589
159718
159854
159889
159892
159815
159664
159666
159553
159581
159566
159646
159613
159672
159844
159856
159825
159782
159619
159509
159536
159605
159655
159696
159812
159768
159586
159508
159420
159578
159553
159682
159742
159731
159801
159786
159701
159617
159411
159392
159418
159598
159598
159639
159781
159745
159638
159597
159442
159401
159454
159553
159628
159646
159698
159720
159683
159667
159526
159461
159480
159496
159615
159711
159769
159704
159559
159521
159422
159387
159361
159399
159506
159501
159684
159811
159704
159599
159473
159320
159317
159412
159490
159645
159690
159636
159484
159535
159403
159373
159377
159481
159597
159648
159707
159706
159587
159438
159206
159103
159192
159387
159623
159648
159779
159755
159610
159503
159373
159268
159113
159188
159328
159455
159722
159743
159563
159417
159397
159318
159246
159341
159476
159546
159614
159622
159522
159361
159339
159331
159283
159338
159385
159442
159642
159760
159608
159471
159356
159307
159245
159302
159468
159477
159498
159576
159490
159466
159471
159319
159250
159347
159482
159506
159584
159628
159465
159384
159265
159215
159196
159346
159455
159526
159635
159655
159539
159409
159319
159261
159203
159260
159374
159403
159517
159574
159558
159448
159320
159240
159160
159203
159261
159416
159632
159646
159530
159380
159287
159235
159215
159310
159360
159432
159570
159699
159563
159489
159329
159242
159149
159200
159369
159522
159716
159665
159490
159337
159264
159272
159289
159283
159372
159428
159551
159552
159474
159431
159278
159218
159212
159259
159278
159384
159558
159634
159571
159468
159280
159216
159210
159245
159339
159369
159446
159474
159450
159359
159197
159153
159179
159210
159256
159285
159346
159452
159428
159367
159415
159215
159114
159140
159294
159306
159384
159408
159520
159441
159182
159076
159071
159186
159387
159366
159435
159512
159393
159268
159193
159129
159094
159110
159184
159235
159338
159361
159313
159194
159150
159089
158991
159061
159229
159262
159367
159427
159290
159116
159040
159048
159019
158981
159100
159187
159402
159444
159318
159113
159101
159093
159018
159000
159135
159216
159299
159364
159324
159216
159094
159034
159078
158993
159047
159125
159228
159324
159275
159174
159094
158995
159005
159005
159074
159070
159097
159148
159168
159225
159262
159095
158972
158968
159135
159127
159174
159244
159307
159164
159116
158993
158931
158940
159117
159094
159175
159302
159261
159074
158927
158939
158958
159022
159146
159124
159147
159121
159161
159164
159075
159007
158976
158989
159077
159069
159169
159196
159179
159075
159120
159086
158946
158891
159029
159064
159149
159229
159287
159196
159038
158921
158884
158924
158995
159084
159125
159111
159070
159051
159030
159054
158956
158918
158940
158939
159018
159130
159150
159126
159107
159110
158943
158844
158957
158981
159118
159210
159188
159100
158994
158939
158834
158774
158844
158899
158987
159140
159252
159057
158869
158788
158748
158775
158877
158927
159127
159275
159191
159081
159008
158980
158877
158848
158971
159145
159270
159331
159304
159240
159160
159129
158966
158932
159024
159021
159006
159022
158983
158860
158646
158523
158397
158329
158387
158509
158665
158805
158791
158750
158703
158698
158770
158676
158723
158867
158990
159093
159056
158931
158849
158961
158929
158819
158808
158802
158925
159006
159075
159075
158975
158928
158821
158740
158806
158929
159030
159194
159279
159160
158950
158830
158752
158766
158828
158934
159059
159140
159196
159124
158941
158898
158853
158775
158742
158840
158971
159047
159084
159143
159146
158961
158801
158776
158786
158869
159040
159122
159167
159044
158878
158826
158710
158779
158843
158843
158984
159118
159124
159044
158912
158877
158749
158718
158794
159027
159008
159120
159246
159151
158981
158899
158787
158828
158863
158903
159051
159137
159137
159096
158979
158913
158758
158768
158910
158988
159009
159060
159133
159158
158964
158884
158796
158793
158821
158780
158908
159054
159078
159097
158926
158945
158847
158817
158844
158903
158976
159007
159040
159071
159001
158929
158765
158679
158658
158791
158890
159012
159069
159110
158853
158813
158773
158631
158710
158796
158905
159077
159103
159039
158854
158788
158746
158627
158563
158652
158792
158940
159147
159079
158825
158785
158709
158644
158645
158733
158858
158941
159026
159015
158845
158766
158623
158561
158607
158762
158852
159021
159049
158966
158826
158795
158682
158615
158710
158856
158973
159065
159104
159049
158903
158924
158849
158702
158638
158690
159019
159225
159146
159061
158886
158923
158875
158771
158774
158793
158818
158980
159101
159132
158976
158944
158882
158759
158730
158777
158874
158939
159025
159005
158857
158849
158885
158763
158682
158721
158832
158969
158985
159006
158845
158803
158828
158726
158731
158805
158833
158874
158975
159042
158924
158837
158659
158631
158723
158767
158875
158956
158993
159045
158907
158801
158658
158571
158585
158788
159003
158989
158985
159025
158836
158811
158799
158644
158546
158607
158745
158850
158978
159065
158924
158797
158730
158620
158607
158693
158744
158849
158943
158866
158777
158830
158853
158772
158663
158684
158774
158778
158843
158849
158780
158809
158745
158567
158622
158634
158725
158786
158931
159015
158901
158774
158624
158577
158536
158637
158742
158806
158911
158926
158942
158808
158764
158648
158631
158705
158763
158750
158811
158856
158784
158844
158779
158684
158630
158586
158739
158906
159028
158985
158886
158851
158748
158657
158617
158610
158709
158798
158820
158853
158831
158877
158773
158614
158544
158604
158734
158907
159058
159052
158926
158768
158660
158619
158578
158612
158665
158737
158826
158837
158764
158712
158601
158519
158521
158583
158680
158720
158800
158912
158790
158628
158620
158589
158502
158451
158633
158805
158914
158882
158796
158677
158606
158487
158412
158406
158630
158755
158824
158885
158775
158709
158640
158537
158475
158550
158709
158755
158838
158837
158780
158743
158647
158508
158478
158510
158634
158703
158750
158800
158649
158595
158591
158537
158519
158567
158670
158734
158819
158822
158730
158613
158520
158468
158404
158450
158603
158636
158674
158684
158671
158645
158639
158551
158428
158392
158549
158647
158720
158775
158662
158587
158487
158338
158193
158264
158430
158685
158831
158839
158683
158568
158555
158492
158500
158544
158702
158759
158816
158828
158855
158822
158864
158737
158641
158588
158671
158585
158564
158552
158506
158303
158179
158026
157991
157983
158102
158204
158366
158434
158419
158279
158191
158273
158365
158383
158479
158615
158684
158752
158732
158631
158553
158418
158280
158342
158619
158715
158706
158735
158690
158590
158573
158482
158343
158321
158417
158541
158701
158808
158754
158571
158475
158453
158392
158357
158458
158590
158659
158727
158725
158665
158584
158476
158408
158315
158471
158567
158662
158699
158676
158546
158476
158476
158454
158415
158567
158654
158672
158664
158564
158540
158521
158467
158409
158363
158411
158520
158585
158665
158720
158639
158507
158391
158382
158366
158424
158523
158618
158699
158615
158643
158569
158426
158428
158322
158404
158450
158502
158664
158665
158623
158521
158465
158352
158280
158405
158541
158583
158626
158633
158605
158555
158486
158422
158358
158432
158519
158559
158627
158676
158585
158449
158406
158358
158325
158453
158528
158617
158636
158575
158506
158389
158373
158347
158250
158259
158366
158454
158579
158616
158545
158478
158388
158263
158169
158297
158483
158557
158591
158534
158562
158461
158407
158280
158149
158218
158377
158504
158529
158558
158550
158450
158329
158229
158284
158387
158470
158572
158607
158544
158547
158400
158200
158146
158097
158286
158438
158525
158617
158588
158488
158365
158235
158162
158164
158285
158456
158544
158533
158564
158569
158410
158357
158208
158149
158258
158376
158446
158547
158571
158567
158380
158301
158212
158152
158208
158273
158307
158534
158548
158566
158471
158418
158305
158193
158203
158249
158349
158586
158670
158562
158356
158275
158190
158150
158214
158484
158534
158589
158576
158588
158468
158409
158296
158162
158239
158396
158443
158617
158581
158544
158470
158416
158330
158224
158276
158422
158489
158534
158522
158441
158331
158326
158239
158189
158338
158507
158577
158608
158529
158576
158470
158458
158363
158291
158328
158425
158507
158555
158549
158577
158448
158337
158266
158249
158257
158418
158514
158614
158612
158539
158334
158308
158405
158374
158335
158406
158410
158523
158602
158589
158392
158325
158341
158348
158349
158441
158482
158541
158557
158599
158587
158479
158375
158240
158223
158362
158388
158553
158658
158705
158544
158476
158354
158376
158366
158433
158555
158667
158633
158639
158472
158403
158437
158316
158290
158463
158600
158722
158747
158691
158594
158487
158388
158268
158277
158426
158560
158672
158755
158755
158641
158574
158429
158304
158287
158386
158482
158540
158518
158510
158521
158646
158619
158564
158448
158517
158538
158647
158719
158834
158669
158532
158411
158272
158279
158438
158545
158633
158660
158763
158687
158554
158449
158307
158310
158440
158469
158578
158640
158684
158565
158540
158450
158326
158403
158486
158682
158837
158774
158754
158684
158540
158455
158378
158424
158458
158582
158657
158677
158714
158699
158585
158481
158478
158526
158498
158598
158708
158717
158711
158612
158588
158610
158571
158566
158596
158661
158807
158866
158779
158756
158709
158589
158479
158471
158531
158611
158777
158854
158908
158798
158675
158526
158397
158469
158537
158560
158715
158761
158798
158791
158705
158612
158486
158446
158528
158646
158732
158758
158778
158716
158568
158557
158457
158462
158578
158777
158759
158873
158875
158754
158689
158594
158445
158427
158506
158681
158764
158796
158966
158930
158868
158800
158680
158746
158853
158990
159031
159039
159084
158948
158713
158615
158513
158527
158518
158623
158647
158615
158528
158432
158245
158295
158315
158248
158296
158428
158518
158587
158708
158787
158740
158696
158563
158607
158624
158708
158839
158894
158921
158885
158760
158742
158652
158564
158660
158749
158845
158922
158925
158926
158830
158756
158612
158641
158627
158700
158778
158929
159105
158992
158847
158774
158647
158703
158741
158840
158965
158976
159005
158993
158922
158784
158622
158627
158733
158916
158998
159143
159243
159067
158968
158850
158626
158627
158708
158987
159029
159116
159182
159129
158967
158804
158706
158789
158880
158939
158994
159087
159131
159073
158973
158978
158829
158751
158797
159014
159052
159127
159228
159192
159056
158966
158865
158826
158849
158935
158898
159001
159132
159158
159032
159091
158833
158724
158814
159001
159088
159091
159209
159246
159064
158983
158878
158828
158900
158898
158969
159119
159208
159184
159039
158983
158917
158880
158896
158984
158978
159077
159193
159208
159068
159049
158943
158836
158791
158882
158962
159115
159256
159223
159102
159066
158993
158905
158875
158925
158994
159095
159216
159280
159176
159050
158888
158826
158833
158978
159039
159044
159131
159201
159110
158993
158856
158866
158932
159042
159164
159154
159195
159135
159042
159007
158980
159001
158940
158983
159088
159156
159217
159281
159168
159037
158949
158925
158922
158976
159039
159052
159172
159221
159167
159168
159060
158921
158925
159028
159191
159181
159227
159195
159166
159089
159047
159025
158982
159080
159162
159137
159222
159223
159159
159107
159010
158928
158935
158974
159078
159216
159377
159345
159187
159070
158945
158944
158896
158989
159124
159149
159267
159292
159197
159183
159034
158917
158865
158967
159066
159092
159227
159257
159308
159220
159111
159047
158961
159011
159103
159091
159236
159207
159155
159160
159020
159005
159069
159088
159147
159258
159371
159385
159213
159117
158989
158957
158879
158921
159128
159234
159337
159373
159228
159088
158992
158920
158917
158987
159184
159165
159307
159391
159245
159063
159007
158880
158925
159004
159131
159192
159242
159212
159129
159071
158978
158917
159006
159155
159142
159128
159241
159237
159188
159158
159140
159013
158944
158984
159103
159091
159261
159302
159234
159162
159048
158975
158912
158925
159002
159035
159222
159416
159276
159097
158957
158890
158844
158861
159093
159258
159316
159317
159210
159090
159018
158937
158907
159009
159074
159083
159202
159276
159258
159151
159035
158911
158866
158934
159076
159097
159152
159232
159188
159118
158968
158928
158946
159041
159081
159152
159242
159260
159212
159064
158938
158854
158810
158979
159139
159138
159208
159276
159236
159114
159049
158958
158873
158928
159066
159092
159144
159227
159293
159258
159199
159047
158933
158955
159068
159126
159198
159294
159338
159200
159069
158937
158873
158948
159121
159133
159248
159255
159238
159186
159043
159033
159007
159088
159216
159173
159323
159368
159271
159123
159060
159052
158899
158966
159168
159086
159219
159332
159364
159164
159023
159038
158980
158958
159061
159075
159209
159378
159335
159171
159066
158953
158876
158918
158980
159060
159259
159354
159302
159124
159039
158955
158898
158900
159027
159057
159170
159237
159251
159155
158988
158965
158894
158884
158961
159035
159204
159261
159242
159094
159059
159075
159010
159038
159153
159164
159384
159515
159592
159499
159242
159090
159042
159038
159083
159044
159056
159056
158961
158800
158635
158550
158502
158524
158621
158653
158847
159018
159063
158975
158880
158836
158796
158741
158872
158970
159110
159238
159314
159215
159164
159034
158998
158968
159034
159082
159181
159236
159240
159142
158995
159039
159101
159037
159047
159073
159192
159309
159345
159196
158999
158986
158919
158916
159047
159088
159195
159262
159324
159216
159056
158941
158896
158944
159134
159231
159265
159337
159307
159189
159141
159078
158958
158980
159073
159139
159200
159291
159303
159247
159160
159139
158982
158870
158945
159091
159257
159445
159464
159306
159118
158997
158868
158978
159178
159357
159423
159378
159444
159264
159100
159082
159067
159055
159135
159184
159295
159345
159390
159327
159187
159108
159027
159083
159185
159245
159300
159351
159367
159371
159276
159246
159124
159073
159082
159110
159180
159276
159320
159312
159234
159254
159187
159123
159130
159145
159225
159286
159328
159319
159239
159267
159043
158923
158974
159107
159330
159546
159533
159391
159190
159166
159054
159007
159049
159198
159320
159332
159378
159290
159176
159122
158999
159008
158999
159045
159221
159368
159425
159439
159225
159097
159008
159014
159033
159045
159197
159328
159451
159351
159150
159113
159034
159023
159184
159238
159245
159314
159347
159318
159130
159161
159015
159122
159163
159131
159229
159366
159437
159365
159167
159156
159063
159037
159079
159117
159155
159337
159389
159339
159220
159094
159068
158955
158977
159099
159201
159318
159477
159380
159176
159129
158986
158961
158997
159023
159157
159319
159311
159281
159121
159107
159016
158970
158992
159090
159163
159259
159353
159308
159132
159107
159036
158924
159051
159166
159178
159258
159320
159348
159104
158970
158834
158972
159070
159196
159265
159298
159320
159253
159071
158962
158808
158715
158806
159039
159180
159335
159390
159315
159101
159042
158962
158846
158925
159017
159117
159228
159297
159211
159026
159009
158887
158858
158875
158927
159062
159155
159182
159220
159153
159063
158974
158919
158818
158854
158894
159087
159206
159176
159003
159036
158916
158840
158829
158900
158986
159074
159155
159121
158952
158914
158920
158845
158866
158920
158978
159117
159208
159222
159078
158998
158872
158778
158805
158881
158988
159035
159144
159213
159086
159052
158972
158850
158816
158884
159038
159095
159096
159049
158869
158937
158917
158911
158917
158940
159015
159116
159203
159175
158971
158896
158845
158812
158794
158773
158921
159065
159190
159192
159029
158992
158917
158903
158864
158831
158966
159022
159046
159128
159077
159036
158927
158734
158752
158859
159051
159097
159203
159257
159085
158961
158826
158749
158710
158847
158992
159036
159175
159187
159039
158908
158889
158863
158770
158800
158952
159020
159163
159187
159018
158949
158897
158816
158835
158834
158939
159015
159096
159140
159052
158950
158838
158674
158666
158689
158885
158980
159133
159251
159100
158965
158839
158719
158628
158604
158779
158976
159090
159032
158981
158866
158738
158717
158664
158760
158923
159020
159074
159023
158943
158911
158830
158715
158600
158632
158770
158957
159088
159126
159025
158864
158837
158819
158795
158801
159012
159161
159242
159345
159273
159094
159030
158882
158808
158954
159027
159016
159011
158948
158821
158672
158524
158362
158321
158318
158448
158526
158616
158627
158558
158464
158386
158426
158510
158618
158742
158825
158866
158995
158925
158815
158795
158701
158709
158820
158938
158927
159020
158994
158906
158818
158701
158699
158701
158722
158811
158934
159071
159081
158958
158850
158778
158644
158664
158718
158790
158841
159000
159023
158959
158821
158765
158700
158673
158628
158718
158824
158922
158982
158870
158730
158619
158566
158608
158757
158897
158872
158921
158910
158823
158805
158783
158697
158658
158625
158804
158867
158919
158952
158948
158888
158813
158661
158489
158430
158576
158797
158940
159069
159032
158867
158700
158588
158559
158562
158688
158787
158818
158885
158869
158883
158800
158594
158612
158607
158766
158837
158931
159004
158954
158811
158670
158585
158609
158627
158811
158836
158882
158899
158901
158828
158738
158647
158540
158460
158691
158845
158946
159020
158984
158857
158788
158741
158668
158648
158827
158818
158890
158859
158768
158778
158824
158709
158628
158605
158743
158817
158867
158943
158953
158867
158806
158727
158586
158593
158770
158798
158911
159019
158982
158819
158713
158619
158565
158564
158684
158743
158908
158949
158944
158841
158692
158661
158619
158595
158706
158797
158792
158810
158851
158782
158695
158665
158531
158482
158620
158748
158840
158992
158965
158848
158676
158601
158586
158539
158747
158757
158719
158791
158876
158917
158793
158738
158644
158482
158629
158663
158761
158918
158942
158860
158697
158607
158560
158541
158655
158821
158849
158915
158849
158741
158622
158519
158482
158481
158713
158821
158877
158981
158987
158856
158653
158532
158486
158483
158683
158828
158849
158830
158831
158806
158781
158691
158566
158487
158644
158772
158800
158857
158880
158829
158826
158713
158597
158493
158587
158727
158830
158977
158952
158890
158798
158721
158661
158574
158625
158709
158716
158818
158904
158913
158775
158700
158549
158457
158607
158715
158779
158875
158897
158903
158727
158663
158606
158557
158640
158724
158770
158918
158931
158942
158887
158726
158571
158498
158605
158776
158779
158859
158919
158991
158813
158753
158719
158614
158708
158856
158937
159018
158937
158776
158599
158627
158776
158759
158781
158841
158833
158938
158950
158949
158904
158816
158701
158583
158611
158771
158840
158981
159032
159023
158969
158821
158657
158586
158670
158764
158828
158961
158968
158975
158895
158804
158698
158697
158869
158860
158874
158974
158986
158993
158891
158862
158759
158708
158760
158849
158904
158938
158985
159038
158878
158722
158639
158661
158804
158897
158956
158970
159065
159115
158922
158826
158719
158654
158791
158920
158945
159015
158959
158991
158997
159028
159003
158875
158769
158903
159047
159082
159073
159079
158962
158881
158743
158665
158743
158985
159125
159182
159109
159074
158951
158905
158802
158730
158795
158959
159047
159038
158989
159039
158963
159021
158914
158866
158985
159136
159149
159195
159154
159139
159036
158978
158944
158924
158941
159046
159083
159136
159128
159123
159084
158989
158849
158737
158801
158989
159019
159085
159170
159324
159243
159062
158968
158794
158890
159049
159090
159147
159251
159219
159058
159019
158972
158835
158921
159037
159164
159347
159271
159301
159163
158998
158951
158926
158980
159091
159219
159367
159399
159420
159353
159271
159231
159271
159282
159356
159369
159410
159423
159374
159222
159091
158881
158725
158679
158684
158779
158832
158816
158870
158876
158848
158775
158640
158699
158839
158937
159021
159082
159107
159186
159242
159197
159113
159081
159152
159226
159324
159309
159286
159217
159225
159162
159005
159035
159138
159210
159265
159289
159366
159270
159195
159236
159087
159101
159204
159309
159405
159393
159439
159366
159168
158974
158894
159036
159359
159422
159413
159456
159452
159381
159296
159225
159102
159051
159118
159233
159401
159448
159493
159450
159339
159279
159149
159094
159260
159332
159387
159410
159426
159346
159333
159337
159135
159140
159277
159464
159606
159619
159605
159552
159466
159309
159191
159230
159337
159432
159541
159679
159769
159631
159419
159246
159208
159304
159448
159547
159590
159701
159664
159590
159588
159528
159370
159260
159387
159513
159616
159665
159723
159687
159517
159418
159353
159297
159321
159532
159670
159714
159710
159686
159571
159449
159312
159352
159343
159529
159765
159714
159650
159585
159446
159410
159407
159347
159416
159538
159613
159741
159828
159658
159577
159521
159456
159391
159413
159487
159581
159678
159709
159722
159628
159517
159355
159382
159426
159479
159565
159577
159680
159782
159661
159482
159338
159389
159529
159634
159644
159651
159707
159647
159491
159427
159416
159474
159581
159631
159745
159722
159728
159731
159597
159549
159313
159317
159490
159670
159777
159763
159869
159797
159568
159474
159419
159469
159534
159648
159741
159744
159830
159795
159702
159617
159506
159537
159436
159590
159662
159769
159811
159781
159723
159675
159491
159432
159427
159535
159587
159672
159865
159847
159712
159664
159530
159506
159512
159596
159604
159676
159836
159929
159848
159819
159601
159517
159563
159681
159751
159698
159732
159754
159745
159856
159699
159584
159542
159689
159735
159767
159875
159888
159699
159584
159388
159372
159450
159681
159844
159919
159989
159878
159748
159691
159582
159538
159550
159688
159755
159806
159773
159874
159806
159728
159555
159468
159526
159581
159671
159766
159934
159836
159666
159646
159533
159569
159528
159623
159789
159875
159951
159903
159798
159649
159537
159498
159449
159578
159627
159667
159807
159935
159919
159862
159683
159588
159539
159625
159749
159799
159912
159991
159793
159718
159603
159631
159651
159741
159868
159899
159970
159970
159839
159741
159615
159558
159592
159721
159732
159809
160008
160021
159908
159795
159719
159667
159629
159665
159719
159803
159906
159901
159830
159843
159827
159793
159735
159790
159851
159978
160044
160012
159904
159809
159637
159576
159538
159655
159819
159959
160206
160139
159994
159837
159695
159608
159648
159807
159871
159939
159983
160025
159854
159749
159562
159622
159606
159754
159916
159965
160067
160071
159991
159843
159731
159686
159697
159713
159801
159850
159971
160077
159991
159882
159803
159780
159727
159748
159833
159863
159924
159954
159873
159798
159761
159674
159601
159725
159823
159919
160013
160082
160000
159853
159703
159648
159620
159683
159862
160019
160115
160091
160006
159853
159660
159599
159715
159829
159929
160023
160069
160061
159986
159826
159700
159711
159740
159776
159839
159823
159924
160108
160084
159956
159871
159807
159809
159870
159908
160012
160186
160260
160160
160079
159980
159892
159877
159855
159928
159775
159879
159900
159791
159557
159454
159330
159261
159280
159414
159511
159716
159806
159786
159691
159579
159466
159446
159558
159663
159754
159924
159892
159937
159923
159857
159708
159617
159705
159830
159817
159916
160031
160030
159871
159757
159665
159580
159531
159653
159840
160034
160103
160015
159820
159694
159585
159582
159681
159811
159831
159899
159971
159931
159820
159828
159781
159735
159725
159786
159847
159971
160001
159977
159908
159772
159707
159652
159625
159715
159776
159975
160074
160107
159950
159779
159740
159652
159588
159751
159770
159906
160046
160107
159924
159757
159745
159636
159652
159838
159788
159933
160011
159978
159862
159921
159882
159801
159718
159794
159829
159921
159992
160051
160036
159821
159772
159741
159778
159942
159973
160048
160157
160144
159946
159889
159788
159636
159612
159824
159960
160125
160266
160196
160011
159852
159806
159748
159752
159841
159840
159956
160056
160007
159982
159897
159894
159783
159715
159815
159818
159959
160024
160008
159929
159857
159822
159799
159751
159819
159818
159834
159925
159910
159877
159837
159796
159665
159661
159741
159796
159916
159951
159893
159838
159853
159817
159687
159633
159797
159835
159902
159965
159897
159802
159755
159717
159729
159739
159792
159854
159867
159884
159899
159825
159735
159661
159642
159564
159587
159711
159956
159998
159982
159860
159728
159652
159582
159573
159646
159728
159762
159837
159935
159890
159699
159674
159599
159574
159695
159757
159961
160004
159947
159842
159723
159669
159635
159549
159542
159663
159781
159876
159893
159854
159794
159706
159642
159642
159644
159693
159763
159891
159963
159916
159754
159611
159554
159532
159641
159825
159803
159879
159931
159882
159728
159666
159593
159581
159615
159695
159821
159921
159938
159875
159736
159627
159516
159494
159455
159499
159624
159847
160019
159983
159820
159695
159570
159529
159583
159664
159737
159859
159865
159804
159761
159646
159554
159451
159489
159621
159713
159815
159833
159840
159687
159621
159556
159517
159574
159602
159585
159670
159648
159687
159737
159847
159634
159558
159541
159579
159654
159756
159889
159822
159667
159594
159551
159557
159561
159641
159705
159764
159819
159763
159644
159582
159461
159431
159547
159575
159639
159803
159759
159724
159723
159688
159626
159541
159544
159540
159595
159728
159822
159794
159673
159596
159529
159487
159468
159604
159700
159834
159868
159803
159673
159573
159500
159370
159290
159336
159512
159643
159771
159869
159677
159537
159450
159362
159380
159463
159638
159770
159835
159817
159624
159467
159341
159312
159388
159499
159600
159716
159763
159749
159621
159611
159472
159365
159378
159433
159500
159604
159713
159685
159549
159583
159460
159345
159330
159414
159548
159684
159798
159731
159551
159494
159428
159331
159385
159538
159592
159611
159646
159653
159558
159512
159390
159339
159342
159481
159613
159635
159747
159764
159587
159482
159399
159361
159348
159473
159539
159623
159775
159634
159504
159568
159513
159419
159374
159409
159539
159666
159725
159610
159466
159441
159447
159393
159303
159370
159480
159577
159678
159590
159340
159345
159347
159322
159440
159481
159529
159597
159652
159670
159487
159361
159284
159210
159303
159405
159499
159590
159659
159629
159460
159413
159355
159275
159315
159415
159573
159565
159594
159678
159545
159521
159426
159290
159324
159467
159654
159782
159833
159847
159731
159617
159614
159459
159466
159516
159662
159639
159570
159493
159363
159217
158969
158847
158803
158859
159005
159143
159295
159383
159373
159341
159236
159128
159130
159241
159409
159525
159538
159495
159351
159385
159393
159357
159283
159323
159442
159503
159539
159500
159340
159205
159204
159246
159336
159439
159468
159428
159529
159607
159532
159416
159292
159190
159162
159217
159372
159521
159667
159706
159544
159416
159288
159221
159234
159369
159505
159493
159583
159605
159560
159490
159364
159323
159386
159352
159440
159501
159538
159586
159516
159414
159348
159350
159337
159308
159438
159499
159560
159588
159492
159391
159294
159137
159147
159289
159530
159634
159685
159653
159516
159361
159233
159194
159242
159283
159474
159547
159563
159590
159486
159519
159524
159391
159289
159346
159469
159547
159602
159644
159547
159516
159426
159281
159296
159279
159415
159554
159665
159616
159512
159468
159403
159380
159319
159254
159460
159612
159732
159717
159579
159497
159452
159341
159286
159253
159343
159366
159420
159472
159449
159413
159433
159432
159306
159212
159291
159265
159354
159497
159486
159455
159323
159278
159225
159280
159416
159405
159481
159550
159428
159363
159311
159224
159170
159124
159236
159255
159378
159471
159436
159404
159294
159164
159145
159103
159210
159287
159379
159464
159448
159342
159232
159097
159006
158989
159160
159208
159316
159426
159342
159285
159207
159123
159124
159066
159174
159262
159330
159465
159442
159360
159260
159018
158902
158957
159179
159265
159377
159390
159262
159237
159166
159131
159065
159044
159181
159230
159250
159293
159199
159105
159069
158931
158991
159018
159268
159283
159304
159355
159261
159081
159041
159033
159006
159022
159181
159208
159285
159312
159250
159200
159180
159042
158835
158763
158940
159117
159230
159244
159236
159227
159177
158999
158886
158780
158985
159112
159275
159341
159284
159204
159079
158987
158877
158774
158907
159124
159220
159294
159208
159054
159009
159051
158916
158859
158952
158985
159123
159240
159219
159135
159090
158988
158855
158778
159055
159161
159264
159231
159140
159042
158986
158904
158770
158745
158954
159103
159211
159229
159174
159097
158970
158905
158867
158796
158980
159074
159120
159191
159193
159102
159008
158877
158791
158822
158921
158991
159107
159188
159117
159038
158949
158859
158798
158715
158898
159127
159143
159135
159080
159015
158960
158961
158833
158768
158818
158888
159014
159070
159119
159068
159016
158965
158863
158689
158729
158967
159029
159072
159105
159052
158967
158966
158846
158801
158803
158866
158994
159094
159159
159136
159031
158925
158743
158749
158827
158899
158922
159003
159025
159015
158886
158695
158581
158588
158887
159122
159106
159077
159078
159100
159040
158916
158769
158704
158788
158948
158957
158953
159017
159023
159026
158930
158820
158722
158760
158820
158865
158954
159055
159118
159060
158997
158817
158706
158796
158925
158967
159065
159036
158949
158814
158901
158868
158864
158952
158996
159020
159022
159019
159006
158951
158876
158757
158648
158682
158830
158998
159106
159147
159158
159060
158884
158730
158693
158780
158855
158878
158994
159036
158963
158878
158772
158770
158765
158923
159019
158986
159043
159042
159013
158886
158828
158777
158682
158660
158757
158855
158952
159017
159061
158933
158814
158761
158663
158754
158953
159082
159117
159060
159150
159198
159187
159009
158891
158927
159043
159047
159138
159121
159057
158859
158787
158625
158359
158318
158405
158475
158585
158694
158628
158599
158595
158549
158484
158498
158569
158664
158797
158818
158884
158797
158799
158690
158640
158664
158741
158788
158820
158924
158969
158885
158750
158680
158575
158606
158644
158748
158827
158877
158895
158739
158766
158788
158653
158616
158690
158792
158868
158822
158784
158729
158702
158637
158506
158554
158730
158872
158893
158952
158911
158837
158785
158599
158460
158472
158620
158718
158798
158821
158790
158692
158658
158662
158575
158563
158691
158768
158829
158816
158845
158770
158693
158606
158479
158501
158535
158569
158709
158728
158863
158808
158770
158627
158488
158520
158698
158731
158775
158836
158843
158750
158655
158556
158485
158535
158686
158771
158812
158887
158911
158751
158662
158678
158590
158600
158723
158753
158815
158759
158747
158673
158737
158681
158585
158544
158612
158646
158717
158818
158907
158866
158739
158677
158564
158496
158601
158630
158685
158753
158800
158774
158682
158491
158369
158410
158519
158640
158720
158729
158734
158722
158592
158544
158440
158475
158600
158660
158669
158620
158617
158513
158502
158586
158547
158461
158543
158603
158660
158723
158732
158640
158535
158429
158394
158384
158440
158510
158595
158709
158792
158699
158593
158552
158443
158374
158459
158550
158613
158663
158752
158648
158506
158483
158460
158456
158436
158531
158670
158755
158755
158637
158535
158469
158388
158422
158429
158553
158684
158730
158795
158706
158569
158487
158391
158415
158375
158412
158424
158594
158720
158682
158562
158473
158347
158384
158445
158538
158566
158579
158599
158499
158329
158279
158398
158501
158564
158590
158659
158659
158701
158636
158483
158420
158343
158275
158351
158455
158496
158608
158675
158688
158512
158512
158401
158360
158397
158466
158497
158487
158554
158613
158664
158615
158416
158309
158347
158478
158549
158585
158673
158626
158483
158409
158303
158307
158300
158343
158410
158529
158606
158589
158512
158443
158364
158298
158391
158481
158506
158489
158529
158509
158424
158383
158346
158274
158287
158405
158441
158488
158531
158504
158454
158443
158234
158216
158213
158339
158492
158593
158674
158658
158377
158330
158262
158300
158309
158357
158406
158504
158551
158461
158405
158370
158328
158241
158236
158321
158355
158384
158541
158563
158446
158394
158185
158104
158112
158288
158382
158473
158606
158607
158494
158349
158196
158090
158148
158264
158363
158519
158575
158538
158425
158319
158248
158228
158226
158235
158285
158429
158538
158506
158370
158289
158154
158203
158222
158211
158223
158292
158405
158436
158326
158108
158051
158143
158307
158407
158380
158361
158360
158405
158322
158284
158186
158131
158109
158286
158373
158413
158508
158442
158369
158255
158168
158122
158101
158189
158325
158333
158383
158400
158312
158331
158280
158249
158212
158325
158407
158354
158368
158360
158271
158271
158234
158144
158149
158279
158358
158320
158401
158407
158296
158206
158112
158079
158068
158181
158282
158330
158424
158404
158272
158145
158070
158000
158028
158219
158280
158283
158362
158355
158307
158253
158188
158062
157958
158056
158150
158273
158345
158354
158298
158164
158057
158058
158016
158109
158171
158235
158324
158357
158293
158218
158042
157997
158038
158160
158244
158434
158628
158734
158561
158372
158237
158129
158058
158085
158114
158186
158334
158294
158020
157845
157725
157654
157603
157569
157695
157806
157973
158084
158003
157908
157839
157776
157759
157973
158108
158141
158223
158187
158133
158139
158113
157951
158000
158150
158198
158174
158276
158326
158247
158089
157971
157985
157973
158053
158206
158232
158207
158232
158210
158139
158029
157903
157872
157958
158078
158162
158240
158348
158330
158208
158081
158014
158008
158043
158056
158016
158178
158243
158308
158129
158011
157971
157991
158013
158073
158118
158181
158219
158149
158084
158013
157935
157866
157955
158121
158161
158244
158267
158247
158094
157977
157943
158020
158036
158077
158117
158212
158197
158162
158047
157914
157885
157898
158025
158100
158106
158199
158259
158304
158123
158009
157988
157901
157903
157983
158213
158302
158271
158196
158065
157976
157963
157991
157997
158068
158052
158203
158345
158311
158178
158016
157957
157933
157943
158053
158138
158280
158258
158178
158151
157952
157852
157867
157981
158078
158130
158151
158123
158046
158060
158056
158085
157963
157972
158059
158072
158207
158298
158182
157965
157942
157883
157828
157972
158043
158058
158210
158177
158170
158048
158042
157957
157881
157911
158076
158071
158103
158139
158170
158124
158002
157919
157790
157747
157892
158004
158227
158329
158251
158062
157965
157897
157876
157939
158045
158065
158195
158203
158224
158105
158022
157911
157869
157831
157900
157958
158107
158200
158237
158086
157935
157827
157831
157852
158060
158070
158103
158116
158145
158046
157926
157888
157828
157819
157931
157951
158092
158216
158213
158009
157903
157882
157818
157823
157932
157937
158111
158156
158087
157972
157889
157924
157882
157784
157882
158024
158079
158084
158108
157960
157801
157936
157887
157836
157930
157923
158052
158149
158169
158077
157940
157927
157867
157803
157888
157970
158008
158188
158206
158019
157906
157859
157783
157762
157769
157857
158059
158156
158104
157930
157819
157836
157815
157855
157908
157929
157971
158001
158010
157957
157887
157936
157809
157744
157916
157944
158022
158087
158083
157956
157836
157814
157775
157706
157765
157805
157886
158023
158018
157899
157832
157860
157811
157744
157750
157787
157806
157917
157921
157848
157774
157819
157707
157705
157765
157802
157910
158001
158015
157947
157802
157686
157615
157611
157705
157693
157828
157995
158079
157962
157796
157701
157614
157596
157690
157800
157983
158034
158006
157860
157730
157690
157650
157622
157632
157640
157758
158004
158112
157982
157833
157770
157658
157592
157609
157765
157826
157917
157991
157970
157745
157720
157721
157667
157652
157678
157809
157867
157987
157930
157749
157668
157589
157558
157645
157840
157855
157965
157962
157859
157684
157648
157541
157469
157616
157748
157879
157987
158041
157962
157771
157727
157675
157565
157532
157627
157790
157982
157958
157874
157801
157765
157640
157539
157588
157770
157959
157997
157963
157861
157647
157602
157535
157570
157758
157830
157869
157968
157926
157849
157728
157732
157700
157670
157730
157755
157775
157818
157864
157816
157683
157663
157620
157562
157592
157677
157797
157830
157912
157892
157732
157669
157539
157446
157490
157668
157806
157888
157925
157860
157744
157631
157546
157443
157445
157501
157626
157822
157913
157878
157717
157726
157570
157444
157412
157487
157646
157854
157850
157836
157677
157630
157544
157480
157539
157679
157829
157963
158069
157946
157830
157845
157705
157649
157698
157854
157886
157918
157931
157819
157568
157405
157196
157002
156960
157157
157348
157410
157422
157373
157249
157272
157255
157191
157311
157397
157492
157612
157696
157679
157547
157472
157359
157358
157520
157628
157684
157778
157812
157738
157578
157462
157355
157344
157385
157484
157684
157802
157860
157797
157588
157506
157477
157388
157446
157537
157652
157790
157799
157712
157579
157523
157431
157323
157247
157327
157497
157751
157887
157917
157690
157627
157532
157407
157410
157477
157586
157655
157618
157543
157549
157596
157478
157473
157538
157599
157624
157689
157786
157742
157513
157433
157359
157295
157356
157511
157582
157635
157708
157733
157576
157519
157462
157404
157443
157478
157586
157618
157712
157798
157717
157577
157425
157327
157273
157372
157682
157774
157778
157790
157609
157520
157455
157383
157389
157474
157558
157567
157609
157637
157592
157630
157699
157485
157408
157427
157456
157540
157698
157841
157714
157573
157476
157418
157360
157354
157443
157524
157653
157757
157672
157653
157504
157395
157387
157455
157568
157618
157690
157674
157564
157478
157513
157393
157379
157445
157530
157640
157667
157699
157580
157394
157328
157322
157372
157506
157605
157681
157667
157656
157604
157576
157517
157374
157322
157354
157457
157474
157587
157646
157553
157459
157438
157335
157305
157318
157451
157547
157530
157639
157598
157498
157400
157353
157314
157338
157468
157525
157631
157617
157555
157453
157337
157298
157347
157302
157429
157553
157584
157563
157480
157422
157328
157195
157188
157270
157412
157477
157682
157756
157641
157446
157322
157174
157192
157233
157365
157419
157663
157703
157586
157435
157334
157282
157281
157273
157320
157333
157432
157601
157587
157483
157360
157281
157208
157279
157448
157478
157532
157487
157412
157333
157251
157180
157161
157183
157316
157420
157535
157557
157459
157303
157237
157254
157131
157120
157245
157380
157464
157506
157444
157302
157218
157181
157228
157228
157283
157291
157331
157372
157348
157338
157235
157084
156972
157105
157254
157364
157468
157502
157347
157206
157253
157225
157257
157127
157212
157281
157334
157355
157346
157317
157298
157213
157173
157093
157217
157264
157309
157370
157381
157346
157339
157192
157077
157066
157201
157288
157379
157381
157288
157264
157268
157162
157016
157006
157187
157327
157409
157417
157289
157286
157348
157218
157099
157087
157186
157244
157319
157370
157321
157262
157228
157167
157074
157016
157114
157151
157337
157402
157372
157323
157250
157144
157028
156989
157148
157299
157308
157440
157354
157163
157123
157062
157051
157012
157185
157330
157384
157431
157365
157236
157150
157074
157015

[算法提取后的结构化特征]
# 由 EcgFeatureExtractor.extract() + toPromptText() 在手机端重建
# 与手表端发给 DeepSeek 的提示词文本一致（DS 实际收到的数据）
# 注意: 用户 profile（年龄性别）未存入测量记录，手机端重建时为'未知'
#       助手如需年龄性别做医学判断，需用户单独提供

[用户属性]

[全局指标]
采样率:500Hz 时长:30.6s 总点数:15320
R波检测:0个 平均心率:0bpm 范围:0-0bpm
SDNN:0.0ms RMSSD:0.0ms pNN50:0.0%
QRS宽度(本地估测,ms):0±0
PR间期(本地估测,ms):0±0
QT间期(本地估测,ms):0 QTc(Bazett):0ms QTc(Fridericia):0ms
R波平均振幅:0.00mV
信号质量:0.85 良好

[节律判别特征]
RR变异系数:0.000(规律)
Poincaré散点形态:数据不足
短-长RR配对数(早搏代偿):0个

[逐秒分段]
时段(s)  R波  振幅范围(mV)  峰峰值(mV)  最大斜率(mV/s)  RMS(mV)
0.0-1.0  0  -1.02~1.01  2.03  124.50  0.50
1.0-2.0  0  -0.98~0.78  1.76  122.50  0.41  ← 本秒无R波(心率<60或代偿间隙)
2.0-3.0  0  -0.64~0.60  1.24  129.50  0.27  ← 本秒无R波(心率<60或代偿间隙)
3.0-4.0  0  -0.47~0.43  0.90  172.50  0.18  ← 本秒无R波(心率<60或代偿间隙)
4.0-5.0  0  -0.55~0.64  1.20  147.00  0.27  ← 本秒无R波(心率<60或代偿间隙)
5.0-6.0  0  -0.71~0.68  1.39  134.00  0.33  ← 本秒无R波(心率<60或代偿间隙)
6.0-7.0  0  -0.60~0.52  1.12  156.00  0.22  ← 本秒无R波(心率<60或代偿间隙)
7.0-8.0  0  -0.74~0.66  1.39  130.50  0.29  ← 本秒无R波(心率<60或代偿间隙)
8.0-9.0  0  -0.54~0.71  1.25  194.50  0.27  ← 本秒无R波(心率<60或代偿间隙)
9.0-10.0  0  -0.78~0.77  1.55  142.00  0.36  ← 本秒无R波(心率<60或代偿间隙)
10.0-11.0  0  -0.89~0.73  1.62  123.50  0.42  ← 本秒无R波(心率<60或代偿间隙)
11.0-12.0  0  -0.91~0.84  1.75  151.50  0.40  ← 本秒无R波(心率<60或代偿间隙)
12.0-13.0  0  -0.81~0.78  1.59  140.50  0.37  ← 本秒无R波(心率<60或代偿间隙)
13.0-14.0  0  -0.67~0.55  1.22  139.00  0.25  ← 本秒无R波(心率<60或代偿间隙)
14.0-15.0  0  -0.68~0.43  1.11  125.50  0.18  ← 本秒无R波(心率<60或代偿间隙)
15.0-16.0  0  -0.66~0.47  1.13  144.50  0.24  ← 本秒无R波(心率<60或代偿间隙)
16.0-17.0  0  -0.58~0.58  1.16  156.50  0.22  ← 本秒无R波(心率<60或代偿间隙)
17.0-18.0  0  -0.62~0.54  1.17  127.50  0.21  ← 本秒无R波(心率<60或代偿间隙)
18.0-19.0  0  -0.71~0.66  1.37  153.50  0.29  ← 本秒无R波(心率<60或代偿间隙)
19.0-20.0  0  -0.62~0.66  1.28  133.50  0.29  ← 本秒无R波(心率<60或代偿间隙)
20.0-21.0  0  -0.58~0.42  1.00  164.50  0.18  ← 本秒无R波(心率<60或代偿间隙)
21.0-22.0  0  -0.52~0.41  0.93  138.50  0.17  ← 本秒无R波(心率<60或代偿间隙)
22.0-23.0  0  -0.70~0.47  1.17  139.50  0.24  ← 本秒无R波(心率<60或代偿间隙)
23.0-24.0  0  -0.59~0.50  1.09  128.50  0.18  ← 本秒无R波(心率<60或代偿间隙)
24.0-25.0  0  -0.50~0.52  1.03  121.00  0.18  ← 本秒无R波(心率<60或代偿间隙)
25.0-26.0  0  -0.94~0.68  1.62  161.50  0.30  ← 本秒无R波(心率<60或代偿间隙)
26.0-27.0  0  -0.88~0.59  1.46  125.00  0.21  ← 本秒无R波(心率<60或代偿间隙)
27.0-28.0  0  -0.81~0.61  1.41  149.50  0.27  ← 本秒无R波(心率<60或代偿间隙)
28.0-29.0  0  -0.87~0.53  1.40  140.50  0.25  ← 本秒无R波(心率<60或代偿间隙)
29.0-30.0  0  -0.91~0.48  1.39  125.50  0.24  ← 本秒无R波(心率<60或代偿间隙)

[AI 解读]
# DeepSeek 返回的原始 JSON（未清洗，可能含 markdown 代码块包裹）
{
  "平均心率": 0,
  "心率范围": "0-0 bpm",
  "心率稳定性": "无RR间期,无法评估",
  "心率置信度": "低",
  "SDNN_ms": 0.0,
  "RMSSD_ms": 0.0,
  "pNN50_pct": 0.0,
  "HRV解读": "无可用RR间期,HRV分析不可用",
  "HRV置信度": "低",
  "节律判断": "未检测到R波,无法判断节律",
  "RR间期规律性": "无RR间期",
  "早搏提示": [],
  "节律置信度": "低",
  "PR间期_ms": 0,
  "PR判断": "数据不足,无法判断",
  "PR置信度": "低",
  "QRS宽度_ms": 0,
  "QRS判断": "数据不足,无法判断",
  "QRS置信度": "低",
  "QTc_ms": 0,
  "QTcFridericia_ms": 0,
  "QTc判断": "数据不足,无法判断",
  "QTc置信度": "低",
  "间期数据来源": "本设备本地算法估测,误差约±15ms",
  "信号质量": "良好（0.85）",
  "噪声段": [],
  "异常提示": ["30.6秒内未检测到R波,可能存在信号异常或严重心动过缓/停搏"],
  "综合解读": "记录时长30.6秒,信号质量良好,但本地R波检测算法未识别出任何QRS波群,心率为0bpm。RR间期序列缺失,HRV及节律分析无法进行。鉴于信号质量评分高,可能提示信号非心电活动或存在严重心律失常（如心脏停搏）,需立即临床评估。",
  "健康建议": ["建议立即就医,进行标准12导联心电图及临床评估。", "检查设备佩戴情况及信号采集是否正确。"],
  "免责声明": "本报告基于腕表单导联 ECG 统计特征生成,间期为本地算法估测,仅供健康参考,不作为医疗诊断依据。如有不适请就医复查标准 12 导联心电图。"
}
