========== ECG 算法诊断包 ==========
测量时间: 2026-07-17 11:26:05
测量时间戳:1784258765227
采样率:500 Hz
数据点数:15430
时长:30.9 秒
分析方法:heartvoice

[原始 ECG 数据]
# 单位: mV×1000 整数（如 500 = 0.5mV，-1000 = -1.0mV）
# 采样率: 500 Hz，连续采样，无降采样无压缩
# 用途: 助手据此复现本地算法行为（基线漂移/噪声段/R波检测）
# 格式: 每行一个数值，行号=采样点索引（第1行=索引0，即 t=0.000s）
160192
160226
160172
160123
160110
160074
160161
160213
160288
160314
160137
160137
160129
160137
160207
160226
160343
160349
160371
160353
160266
160275
160269
160207
160167
160118
160132
160086
160123
160247
160264
160273
160265
160224
160194
160180
160201
160216
160177
160157
160105
160095
160113
160063
160075
160159
160238
160264
160222
160234
160189
160167
160109
160031
160027
160036
160132
160207
160227
160224
160128
160099
160086
160041
160040
159954
160070
160176
160176
160059
160054
160045
160030
160002
159969
159942
160027
160062
160152
160192
160123
160045
160036
160043
160016
159922
159947
159998
160083
160098
160076
160058
160027
160069
159992
159914
160026
160095
160085
160086
160071
160025
159991
160018
160010
159968
160009
160024
160010
160063
160042
160036
160005
159919
159880
159851
159911
159971
159978
159861
159834
159861
159885
159884
159949
159919
159992
160019
160002
159956
159780
159652
159699
159863
159978
159939
159914
159896
159866
159838
159806
159805
159767
159782
159732
159629
159665
159718
159730
159778
159768
159744
159699
159665
159658
159608
159634
159648
159638
159643
159655
159625
159590
159717
159752
159628
159628
159617
159571
159534
159564
159562
159566
159545
159594
159552
159569
159554
159547
159542
159516
159549
159557
159531
159480
159421
159492
159551
159544
159522
159473
159452
159455
159411
159419
159396
159480
159623
159617
159567
159522
159483
159466
159483
159477
159406
159444
159426
159471
159486
159442
159504
159528
159463
159413
159368
159404
159391
159370
159400
159481
159562
159454
159402
159427
159422
159543
159531
159504
159455
159439
159445
159462
159494
159543
159462
159471
159473
159439
159419
159432
159525
159511
159467
159514
159498
159487
159445
159469
159494
159452
159427
159431
159401
159440
159385
159440
159501
159513
159542
159402
159406
159447
159488
159446
159373
159397
159404
159457
159472
159431
159434
159433
159456
159408
159344
159347
159393
159427
159402
159442
159387
159328
159307
159358
159334
159350
159397
159397
159357
159371
159454
159272
159219
159183
159139
159200
159296
159344
159349
159341
159296
159242
159274
159267
159124
159113
159183
159195
159221
159195
159236
159205
159162
159120
159140
159267
159331
159344
159287
159278
159378
159334
159271
159239
159293
159315
159322
159300
159310
159227
159185
159064
158983
158893
158768
158758
158804
158757
158798
158849
158866
158835
158827
158859
158876
158931
159023
159078
159043
158997
159023
159006
159007
159040
159029
159063
159093
159066
159029
158981
158948
158985
159019
159119
159075
159075
159136
159102
159051
159073
159064
159006
159038
159037
159035
159085
159075
159067
159092
159099
159068
159029
159056
159080
158987
159027
159042
158988
158923
158903
158949
158940
158901
158871
158780
158877
158991
159164
159095
159045
159038
158935
158928
158924
158900
158937
158972
159004
159047
158976
158977
158912
158840
158824
158776
158837
158862
158916
158966
158940
158961
158923
158889
158877
158845
158860
158946
159138
159017
158888
158964
158981
158983
158980
158856
158852
158901
158908
158969
159010
159035
158978
159009
158988
158932
158982
159072
159077
159018
158950
158969
158946
158920
158888
158856
158937
158963
159001
159011
159009
159034
159011
158932
158935
158889
158912
158916
158903
158878
158866
158948
158938
158907
158921
158885
158908
158930
158921
158912
158795
158807
158765
158831
158881
158806
158785
158845
158880
158895
158789
158805
158845
158888
158859
158833
158880
158929
158973
158954
158918
158895
158877
158946
158958
158803
158792
158885
158927
159006
158972
158941
158954
158965
158969
158934
158957
158964
159055
159014
158962
159042
159061
158981
158965
158900
158908
158961
159016
159009
158994
159012
159003
159010
159017
159027
158989
158959
159006
158994
158937
158995
159049
159007
159015
158992
158966
158978
159054
159086
159072
159047
159018
158980
158992
158948
158993
159117
159097
159150
159147
159177
159158
159101
159036
158950
158985
159019
159056
159101
159122
159111
159011
158928
158947
158887
158943
159036
159141
159128
159101
159212
159168
159054
158989
158971
159022
159032
159047
159129
159121
159139
159105
159110
159144
159163
159187
159219
159182
159137
159104
159216
159219
159202
159228
159167
159162
159155
159214
159250
159266
159243
159225
159153
159147
159110
159112
159197
159259
159223
159205
159278
159266
159241
159161
159109
159150
159169
159164
159177
159220
159201
159183
159256
159308
159240
159233
159193
159185
159199
159191
159312
159377
159325
159301
159234
159294
159332
159321
159243
159226
159269
159348
159279
159265
159245
159310
159296
159263
159234
159240
159368
159396
159300
159249
159163
159255
159376
159422
159454
159384
159423
159472
159456
159375
159376
159386
159373
159386
159373
159317
159334
159319
159294
159330
159281
159284
159315
159397
159451
159418
159446
159355
159270
159212
159151
159188
159332
159476
159455
159425
159428
159363
159379
159342
159317
159241
159280
159409
159451
159501
159512
159427
159373
159311
159201
159253
159275
159335
159369
159346
159405
159439
159373
159401
159365
159353
159279
159261
159262
159211
159279
159360
159368
159396
159388
159429
159440
159425
159428
159413
159463
159511
159477
159473
159380
159389
159440
159416
159464
159448
159561
159501
159430
159488
159487
159417
159413
159439
159458
159502
159617
159600
159547
159510
159501
159527
159564
159581
159572
159528
159596
159561
159522
159545
159571
159628
159654
159688
159663
159554
159574
159517
159516
159541
159487
159490
159476
159573
159604
159506
159471
159489
159469
159415
159381
159440
159441
159473
159504
159542
159531
159492
159367
159350
159314
159362
159461
159530
159492
159355
159353
159373
159352
159347
159382
159397
159397
159382
159466
159498
159514
159467
159402
159388
159456
159450
159513
159509
159575
159621
159704
159652
159605
159571
159545
159555
159526
159494
159437
159397
159392
159333
159239
159177
159075
159010
159047
159052
159051
159005
159006
159073
159167
159284
159275
159280
159333
159345
159340
159419
159484
159525
159450
159425
159353
159356
159342
159339
159436
159446
159495
159503
159440
159414
159385
159423
159418
159433
159437
159388
159376
159340
159326
159356
159365
159380
159460
159427
159350
159354
159438
159516
159429
159357
159269
159281
159426
159539
159552
159510
159482
159485
159437
159381
159390
159405
159329
159362
159436
159424
159478
159370
159344
159326
159296
159336
159265
159373
159431
159371
159382
159368
159351
159339
159332
159412
159448
159522
159431
159303
159301
159351
159319
159360
159395
159427
159413
159416
159432
159443
159476
159491
159488
159388
159370
159453
159528
159532
159458
159435
159458
159476
159544
159566
159505
159434
159487
159508
159477
159464
159478
159490
159550
159497
159461
159517
159435
159469
159495
159455
159464
159454
159441
159375
159302
159332
159346
159427
159435
159357
159342
159373
159329
159300
159239
159269
159240
159258
159321
159291
159357
159426
159427
159415
159338
159319
159307
159319
159336
159324
159302
159323
159294
159279
159193
159214
159308
159366
159449
159386
159352
159373
159346
159393
159436
159467
159500
159525
159468
159416
159427
159485
159458
159427
159394
159406
159459
159518
159545
159497
159531
159492
159448
159393
159354
159439
159536
159570
159587
159564
159673
159767
159663
159557
159472
159482
159511
159605
159598
159502
159544
159624
159697
159691
159596
159574
159572
159618
159661
159573
159601
159620
159564
159560
159534
159600
159574
159621
159696
159657
159637
159582
159529
159530
159587
159624
159583
159599
159629
159628
159614
159628
159591
159542
159532
159581
159607
159543
159554
159497
159515
159600
159565
159550
159543
159578
159540
159480
159496
159553
159551
159515
159499
159544
159531
159590
159657
159656
159671
159652
159619
159624
159591
159534
159511
159547
159521
159590
159656
159593
159643
159727
159677
159637
159599
159568
159537
159587
159643
159720
159724
159684
159642
159683
159642
159657
159669
159650
159669
159642
159712
159772
159722
159635
159585
159691
159688
159708
159648
159581
159679
159732
159688
159683
159645
159714
159727
159740
159804
159823
159859
159850
159799
159740
159699
159692
159690
159772
159747
159712
159731
159775
159738
159760
159711
159706
159699
159750
159730
159760
159830
159855
159853
159775
159663
159684
159748
159818
159854
159889
159850
159847
159844
159893
159785
159790
159807
159818
159853
159847
159925
160038
159994
159948
159925
159915
159863
159885
159883
159856
159919
159925
159900
159884
159886
159921
159964
159969
159961
159955
160023
160004
159951
159928
159908
159813
159828
159936
159957
159955
159992
160030
160016
159931
159842
159888
159928
159976
159997
159959
159925
159976
159979
160007
159914
159899
159977
160057
160095
159969
159951
159975
159943
159929
160043
160112
160093
160165
160165
160075
160073
160109
160161
160123
160063
159996
159980
160017
160032
159981
160006
160051
160043
160044
160002
159999
160037
160120
160174
160164
160184
160133
160108
160096
160049
160055
160013
160037
160060
160011
160034
160020
159978
159947
159959
160044
160000
159999
159993
159972
160011
159974
159955
159919
159839
159844
159798
159812
159922
159943
159951
159966
159936
159955
159888
159901
159901
159916
159938
159912
159972
159949
159899
159885
159787
159831
159928
159972
159969
159877
159990
159977
160012
160008
159928
159940
159851
159823
159902
159891
159954
160032
160001
160035
160048
160061
160053
160135
160189
160188
160157
160145
160111
160087
159998
159979
159911
159911
159925
159860
159773
159679
159603
159634
159631
159676
159689
159675
159719
159735
159744
159790
159798
159836
159776
159817
159910
159941
159999
160018
160091
160048
159978
160006
159946
159992
160064
160129
160102
160061
160095
160153
160170
160094
159968
160032
160019
160018
160074
160059
160086
160143
160158
160081
160027
160041
160030
160019
160087
160081
160165
160240
160212
160157
160048
159999
160027
160077
160213
160326
160321
160262
160221
160280
160169
160161
160200
160213
160311
160279
160287
160313
160316
160277
160218
160154
160094
160083
160174
160194
160275
160343
160317
160264
160246
160228
160178
160183
160294
160310
160316
160368
160330
160250
160229
160282
160273
160259
160320
160313
160283
160344
160343
160319
160348
160358
160365
160307
160308
160313
160324
160394
160470
160503
160434
160441
160359
160327
160371
160328
160314
160265
160325
160294
160222
160220
160231
160303
160335
160330
160304
160313
160340
160296
160176
160130
160178
160219
160342
160331
160346
160338
160289
160219
160157
160202
160191
160179
160227
160251
160274
160293
160281
160258
160180
160173
160130
160146
160146
160148
160246
160247
160213
160139
160068
160135
160262
160316
160331
160285
160231
160246
160238
160213
160250
160403
160345
160308
160317
160331
160362
160372
160363
160319
160297
160368
160358
160310
160340
160220
160303
160387
160444
160346
160224
160241
160249
160253
160305
160321
160332
160356
160342
160326
160264
160284
160295
160327
160443
160389
160356
160345
160354
160349
160328
160320
160292
160274
160303
160349
160418
160417
160417
160308
160246
160293
160256
160221
160263
160211
160259
160270
160235
160326
160337
160318
160343
160302
160302
160256
160298
160302
160305
160279
160259
160225
160225
160264
160308
160279
160272
160303
160347
160295
160223
160246
160224
160167
160222
160285
160277
160215
160277
160300
160190
160263
160335
160274
160302
160259
160299
160320
160385
160324
160224
160306
160319
160250
160157
160174
160212
160270
160398
160378
160337
160299
160284
160232
160232
160221
160320
160318
160301
160358
160307
160301
160309
160300
160334
160305
160342
160370
160399
160398
160354
160305
160224
160235
160273
160333
160399
160420
160444
160379
160257
160290
160321
160309
160331
160375
160412
160382
160362
160355
160306
160341
160363
160395
160496
160431
160313
160307
160378
160382
160365
160348
160319
160295
160367
160441
160456
160477
160506
160457
160405
160378
160286
160301
160359
160403
160541
160542
160421
160325
160307
160304
160326
160354
160366
160398
160437
160378
160371
160334
160295
160395
160425
160343
160343
160397
160439
160425
160424
160341
160247
160242
160242
160304
160334
160359
160403
160386
160444
160467
160371
160339
160272
160298
160360
160359
160467
160458
160347
160288
160249
160258
160252
160228
160317
160384
160399
160411
160378
160316
160283
160299
160314
160272
160262
160184
160225
160186
160165
160228
160206
160278
160283
160255
160264
160265
160285
160270
160269
160201
160058
160045
160116
160192
160235
160289
160313
160199
160190
160136
160064
160109
160136
160140
160121
160084
160110
160173
160214
160190
160100
160064
160001
159943
159910
159941
159992
160087
160217
160092
159931
159936
159945
159958
160058
160075
160041
160086
159957
159912
159877
159911
159970
159957
159875
159829
159873
159938
159967
159951
159873
159819
159879
159848
159805
159798
159869
159825
159815
159821
159786
159736
159727
159670
159710
159787
159888
159877
159847
159808
159767
159740
159768
159798
159850
159847
159956
159944
159937
159979
159923
159905
159951
159897
159939
159986
160020
160021
160035
160024
159893
159886
159834
159815
159782
159733
159678
159618
159522
159411
159336
159341
159334
159347
159403
159467
159605
159680
159649
159663
159592
159609
159576
159607
159640
159712
159865
159879
159835
159807
159803
159869
159923
159882
159845
159846
159861
159816
159815
159813
159818
159815
159760
159776
159898
159817
159874
159868
159886
159856
159835
159898
159831
159815
159833
159796
159856
159903
159947
159974
159897
159925
159908
159885
159852
159871
159893
159893
159901
159857
159758
159817
159842
159864
159920
159897
159886
159897
159936
159882
159815
159851
159874
159863
159879
159912
160004
159983
159960
159950
159947
159966
159970
159956
159916
160015
160092
160090
160095
160039
159942
159943
159988
159949
159896
159897
159902
159943
160011
160046
159982
159921
159910
159928
159892
159890
159889
159884
159883
159852
159785
159798
159872
159876
159847
159856
159976
159948
159815
159773
159701
159713
159740
159723
159627
159641
159714
159743
159681
159690
159632
159646
159650
159566
159461
159464
159568
159584
159594
159634
159541
159496
159417
159365
159359
159378
159473
159597
159547
159521
159439
159432
159474
159467
159431
159399
159423
159417
159472
159467
159446
159419
159472
159477
159390
159373
159448
159465
159469
159512
159500
159537
159380
159306
159343
159417
159513
159506
159552
159562
159526
159505
159459
159578
159542
159537
159529
159504
159518
159576
159579
159548
159487
159454
159463
159493
159590
159595
159597
159570
159525
159458
159429
159468
159480
159496
159587
159624
159555
159489
159477
159483
159512
159443
159427
159427
159439
159474
159488
159539
159481
159514
159478
159416
159313
159324
159426
159363
159301
159279
159378
159376
159396
159400
159388
159379
159419
159376
159363
159377
159216
159182
159191
159324
159387
159274
159249
159282
159306
159339
159321
159293
159265
159220
159200
159204
159265
159317
159410
159448
159324
159267
159223
159202
159165
159142
159217
159251
159256
159311
159271
159270
159233
159220
159193
159183
159329
159343
159371
159368
159270
159271
159303
159254
159148
159163
159253
159261
159301
159337
159267
159291
159202
159196
159185
159174
159197
159164
159080
159118
159216
159285
159251
159238
159164
159123
159167
159244
159263
159299
159270
159271
159221
159135
159101
159128
159192
159268
159247
159208
159142
159138
159123
159125
159076
159055
159087
159202
159201
159182
159071
159092
159064
159020
159039
159042
159099
159144
159146
159200
159216
159185
159132
159032
158975
159001
159117
159248
159292
159249
159126
159099
159072
159110
159047
159001
159128
159139
159067
159090
159056
159066
159050
159059
159057
159086
159091
159056
159088
159101
159049
159060
159042
159031
159059
159081
159095
159160
159217
159168
159034
159027
159056
159123
159108
159068
159076
159063
159052
159099
159033
159024
159029
158992
159036
159051
159061
159070
159044
159087
159036
158991
158992
159067
159114
159031
159076
159147
159110
159159
159098
159099
159077
159069
159126
159098
159170
159174
159151
159181
159183
159230
159173
159140
159099
159128
159150
159153
159157
159240
159187
159119
159087
159043
158996
159041
159099
159184
159173
159218
159207
159127
159065
159055
159072
159139
159232
159191
159217
159200
159102
159135
159082
159062
159088
159191
159206
159122
159074
159053
159021
158993
159070
159159
159186
159146
159197
159202
159160
159205
159164
159111
159119
159114
159122
159198
159279
159301
159312
159321
159237
159302
159271
159204
159116
159003
159018
158948
158853
158858
158830
158845
158858
158777
158705
158652
158709
158773
158850
158924
158934
158947
158985
158980
159035
159050
159070
159048
159061
159057
159096
159210
159210
159208
159140
159075
159178
159190
159156
159182
159256
159222
159198
159167
159148
159169
159236
159283
159248
159246
159253
159217
159157
159140
159144
159216
159190
159239
159352
159345
159283
159287
159308
159238
159197
159142
159181
159229
159274
159342
159359
159290
159294
159325
159319
159221
159226
159247
159288
159317
159253
159262
159252
159304
159310
159177
159203
159234
159265
159280
159251
159233
159186
159152
159120
159131
159272
159357
159375
159447
159368
159278
159278
159303
159236
159183
159250
159371
159379
159346
159346
159352
159306
159324
159303
159259
159324
159392
159361
159324
159263
159277
159211
159248
159258
159150
159260
159300
159322
159279
159247
159238
159209
159210
159165
159092
159177
159258
159247
159227
159196
159158
159141
159085
159071
159076
159194
159182
159125
159092
159071
159068
159063
158982
158949
158871
159001
159072
159055
159020
159023
159076
159014
158968
158957
158900
158928
159036
159069
159003
158974
158969
158894
158889
158983
158943
158952
159011
159023
159061
159027
159014
158945
158906
158912
158866
158898
158958
159020
159106
159131
159033
159006
158956
158933
158909
158986
158983
158933
158948
158961
158998
159049
159047
158976
158999
159049
159010
158990
159004
159022
158987
158948
158992
158921
158921
159050
159016
158998
158985
158986
159047
159027
159036
159024
158970
159036
159076
159063
159038
158993
158963
158928
158930
158936
158916
159012
159114
159136
159095
159007
158999
159006
159011
158961
158877
158942
159010
159104
159199
159127
159091
159064
159038
159036
159028
159030
159140
159220
159171
159241
159226
159146
159087
159137
159116
159083
159077
159090
159112
159108
159111
159067
159055
159101
159097
159168
159218
159211
159210
159219
159221
159176
159118
159069
159042
159068
159079
159131
159220
159348
159352
159300
159180
159154
159145
159181
159189
159213
159245
159171
159225
159262
159196
159229
159187
159234
159277
159252
159242
159236
159191
159187
159166
159184
159154
159154
159197
159229
159221
159221
159278
159259
159281
159379
159309
159308
159285
159319
159320
159276
159276
159298
159281
159248
159216
159285
159314
159316
159342
159350
159332
159306
159310
159320
159198
159257
159351
159361
159341
159303
159269
159244
159282
159243
159216
159295
159322
159441
159418
159326
159381
159447
159502
159551
159479
159429
159378
159399
159483
159476
159442
159451
159461
159500
159498
159477
159473
159494
159461
159428
159420
159426
159448
159449
159438
159507
159610
159643
159577
159525
159494
159471
159510
159551
159498
159489
159523
159546
159611
159573
159522
159545
159593
159648
159653
159655
159691
159692
159707
159708
159706
159675
159617
159686
159711
159728
159762
159731
159700
159722
159780
159784
159768
159719
159700
159707
159703
159781
159828
159781
159790
159807
159826
159835
159791
159827
159860
159883
159884
159815
159795
159751
159739
159816
159863
159929
159923
159884
159821
159822
159936
159947
159924
159931
159875
159857
159885
159948
159901
159863
159888
159857
159837
159803
159790
159859
159942
159958
159932
159857
159936
159982
159939
159924
159876
159891
159866
159948
160013
160047
160084
160023
159988
159992
160022
160029
160014
160081
160182
160246
160192
160089
160124
160079
159928
159879
159807
159764
159733
159659
159635
159609
159516
159530
159505
159547
159587
159644
159679
159731
159787
159779
159800
159798
159719
159737
159803
159884
159930
159913
159967
159996
159889
159876
159865
159937
159976
159992
160043
160050
160073
160033
159982
159979
159943
159976
160024
160039
160025
159982
159959
159931
159900
159957
159985
160011
160044
160037
160074
160015
160007
159940
159911
159958
160048
160173
160151
160072
160039
160006
160039
159941
159900
159931
159986
160060
160115
160128
160149
160138
160156
160082
160041
159988
159914
159898
160033
160089
160039
160048
160063
160047
160022
159998
159945
159997
160058
160093
160069
160006
160065
159988
159939
159918
159905
160014
160122
160094
160114
160077
160084
160096
160030
159976
159871
159884
160000
160081
160118
160103
160098
160031
159969
159960
160010
159999
159984
160076
160079
159983
159994
159983
159970
159963
159893
159931
159886
159866
159888
159893
159904
159840
159837
159797
159758
159758
159747
159758
159740
159778
159811
159719
159712
159749
159669
159618
159702
159752
159773
159711
159690
159693
159680
159616
159535
159592
159655
159668
159691
159632
159650
159622
159614
159589
159568
159560
159547
159544
159529
159509
159519
159480
159454
159508
159520
159535
159547
159588
159599
159514
159537
159558
159500
159493
159387
159393
159420
159505
159540
159451
159538
159485
159450
159373
159309
159333
159397
159455
159476
159410
159412
159383
159349
159338
159267
159282
159295
159252
159288
159310
159321
159295
159235
159151
159121
159045
159027
159081
159204
159138
159163
159196
159184
159151
159183
159182
159144
159122
159085
158993
159030
158974
158992
158991
158955
158970
158980
159009
159002
158940
158991
158952
158961
158892
158804
158769
158787
158849
158941
158830
158873
158856
158799
158818
158772
158748
158750
158760
158753
158711
158737
158789
158838
158788
158711
158648
158591
158571
158605
158612
158747
158699
158614
158651
158571
158585
158618
158575
158561
158521
158544
158564
158624
158605
158477
158414
158454
158456
158463
158422
158485
158473
158383
158372
158343
158348
158319
158274
158282
158348
158396
158438
158397
158348
158266
158205
158147
158172
158217
158227
158263
158267
158331
158267
158158
158102
158115
158140
158133
158123
158117
158087
158039
158023
158008
158041
157968
157968
157960
157964
157948
157943
157917
157867
157870
157937
157973
158006
157975
157878
157820
157759
157703
157717
157790
157800
157769
157798
157830
157761
157757
157654
157632
157689
157669
157698
157721
157704
157610
157581
157662
157639
157631
157590
157525
157451
157441
157495
157515
157518
157567
157502
157425
157436
157327
157344
157349
157332
157342
157326
157407
157414
157351
157324
157330
157376
157362
157367
157395
157353
157338
157309
157275
157248
157132
157126
157194
157252
157302
157216
157173
157153
157095
157041
156940
156928
157000
157073
157167
157105
157044
157007
156926
156888
156946
156962
157008
157049
156950
156918
156951
156989
156988
156919
156802
156786
156757
156763
156746
156752
156819
156819
156726
156699
156583
156600
156615
156640
156715
156775
156794
156665
156574
156533
156561
156575
156528
156583
156567
156493
156474
156480
156428
156407
156383
156373
156306
156361
156318
156279
156319
156314
156296
156274
156227
156334
156277
156284
156291
156232
156227
156225
156310
156336
156294
156315
156332
156302
156371
156398
156413
156406
156320
156310
156207
156180
156166
156193
156153
156012
156009
155927
155771
155693
155616
155599
155587
155607
155599
155598
155596
155660
155724
155746
155694
155718
155820
155957
155963
155857
155856
155880
155852
155902
155827
155933
155914
155956
155901
155791
155814
155823
155816
155838
155824
155791
155809
155901
155915
155813
155783
155793
155766
155698
155680
155686
155718
155779
155831
155809
155746
155780
155755
155744
155716
155732
155731
155724
155733
155705
155779
155783
155691
155600
155565
155545
155667
155690
155662
155610
155687
155686
155621
155582
155522
155564
155552
155500
155503
155568
155648
155602
155523
155502
155519
155597
155565
155615
155581
155486
155502
155522
155438
155458
155490
155579
155598
155544
155531
155522
155493
155460
155466
155396
155374
155451
155502
155520
155416
155394
155492
155449
155374
155343
155305
155342
155418
155499
155513
155408
155490
155471
155394
155386
155314
155333
155359
155317
155309
155244
155262
155306
155296
155305
155299
155291
155199
155181
155200
155188
155238
155252
155193
155143
155128
155170
155148
155155
155168
155142
155163
155143
155143
155158
155081
155000
155001
155027
155171
155221
155316
155326
155187
155037
154999
155004
155045
155184
155256
155330
155282
155209
155170
155118
155074
155161
155118
155096
155080
155075
155141
155165
155100
155103
155098
155199
155228
155255
155218
155114
155118
155156
155112
155072
155093
155179
155219
155319
155354
155262
155242
155235
155214
155193
155146
155236
155135
155117
155224
155216
155219
155195
155144
155178
155117
155152
155137
155148
155174
155109
155115
155116
155075
155044
155056
155143
155252
155249
155237
155169
155142
155092
155121
155126
155018
155052
155034
154976
155025
155071
155101
155092
155147
155164
155165
155110
155039
155004
154979
154959
155067
155172
155194
155099
155047
155055
155016
155000
155088
155118
155112
155125
155092
155024
155018
155067
155039
155005
155032
155069
155081
155123
155133
155077
154978
154942
154970
155034
155113
155040
155127
155181
155168
155110
155015
155014
155032
155002
155005
154951
155017
155089
155049
155012
155064
155185
155177
155124
155103
155044
155061
155041
154942
154880
154853
154919
154961
155061
155152
155128
155115
155046
154953
154929
154911
154968
154970
154972
154998
154925
155070
155129
155102
155030
154950
154954
154945
154924
155004
155072
155085
155057
155034
154987
155008
155019
155004
155010
155003
154995
154969
154975
154982
154943
154916
154941
154942
154955
155021
154974
155014
155029
154998
154908
154890
154935
154892
154942
154993
154950
155027
155113
155008
154942
154884
154924
154916
154990
155058
155012
154975
154993
155048
155069
154910
154917
154987
154965
154999
154955
154917
154965
155023
154997
154920
154986
154997
154995
154992
155013
155056
155023
155023
155004
154986
155033
155007
155000
155048
155082
155123
155159
155150
155125
154997
154962
155027
155023
155145
155128
155144
155214
155161
155111
155120
155147
155087
155100
155047
154984
155067
155204
155253
155217
155089
155107
155070
155075
155053
155016
155071
155132
155210
155196
155123
155113
155096
155106
155133
155040
155049
155148
155181
155100
155036
155094
155117
155095
155066
155046
155115
155121
155113
155073
155081
155077
155100
155074
155106
155130
155155
155165
155195
155219
155190
155209
155330
155354
155311
155242
155255
155235
155253
155190
155203
155250
155205
155147
155142
154941
154861
154809
154824
154759
154687
154760
154822
154803
154841
154849
154899
154967
154995
154976
154958
154949
155015
155115
155190
155147
155135
155195
155177
155118
155043
155169
155300
155340
155347
155309
155320
155318
155260
155205
155148
155113
155123
155181
155252
155325
155295
155261
155239
155202
155172
155282
155272
155245
155312
155343
155386
155347
155342
155295
155227
155307
155340
155289
155319
155328
155301
155268
155428
155421
155297
155316
155317
155233
155266
155273
155308
155387
155497
155434
155308
155316
155361
155330
155384
155326
155306
155376
155415
155382
155352
155365
155334
155319
155335
155351
155384
155377
155390
155362
155310
155444
155490
155467
155422
155440
155494
155464
155460
155512
155477
155449
155502
155549
155504
155404
155510
155581
155609
155594
155493
155515
155481
155516
155551
155450
155494
155505
155539
155541
155451
155381
155456
155449
155387
155415
155506
155469
155470
155459
155389
155334
155324
155282
155325
155349
155403
155354
155376
155379
155381
155429
155348
155356
155342
155285
155293
155355
155347
155313
155263
155309
155282
155353
155425
155351
155349
155335
155289
155273
155213
155255
155312
155314
155347
155346
155410
155385
155359
155329
155310
155344
155371
155344
155383
155407
155424
155394
155433
155500
155386
155384
155418
155345
155371
155412
155479
155477
155484
155432
155346
155379
155423
155437
155497
155495
155497
155494
155503
155418
155344
155353
155344
155306
155353
155327
155503
155595
155593
155564
155429
155393
155342
155371
155424
155420
155444
155428
155417
155424
155429
155438
155476
155397
155357
155311
155334
155395
155443
155461
155375
155400
155462
155466
155466
155383
155384
155365
155424
155383
155341
155424
155493
155504
155531
155450
155444
155345
155412
155474
155452
155464
155456
155424
155445
155483
155532
155535
155497
155450
155407
155398
155520
155505
155437
155463
155499
155419
155505
155527
155496
155482
155478
155437
155433
155446
155490
155540
155537
155529
155433
155478
155502
155480
155527
155606
155652
155594
155605
155507
155318
155357
155391
155477
155565
155512
155569
155615
155561
155603
155545
155543
155558
155533
155496
155473
155505
155535
155505
155483
155437
155453
155496
155515
155533
155508
155563
155560
155655
155596
155538
155497
155459
155427
155439
155460
155586
155603
155637
155566
155425
155498
155551
155548
155544
155539
155538
155536
155509
155441
155368
155390
155484
155460
155440
155447
155442
155452
155511
155497
155455
155473
155478
155462
155455
155429
155526
155618
155562
155506
155466
155486
155454
155386
155374
155452
155492
155524
155585
155519
155452
155491
155457
155434
155403
155353
155362
155408
155485
155453
155415
155471
155471
155399
155420
155413
155468
155465
155477
155521
155497
155517
155496
155470
155420
155419
155481
155493
155446
155417
155356
155442
155508
155514
155551
155527
155542
155554
155540
155449
155409
155473
155443
155458
155489
155486
155602
155657
155574
155550
155458
155486
155536
155524
155590
155617
155656
155690
155749
155675
155638
155628
155613
155644
155748
155708
155710
155701
155682
155613
155488
155491
155423
155356
155266
155235
155271
155316
155347
155288
155223
155248
155244
155271
155329
155341
155408
155422
155551
155634
155559
155535
155536
155568
155583
155643
155633
155653
155652
155558
155495
155541
155583
155694
155786
155760
155697
155638
155710
155720
155711
155714
155702
155696
155726
155683
155693
155731
155758
155792
155736
155734
155763
155735
155776
155779
155807
155696
155710
155778
155783
155901
155938
155834
155768
155769
155811
155783
155885
155988
155949
155956
155968
155891
155873
155886
156035
156060
156031
155976
155945
156042
156041
156000
155994
156038
156084
156113
156087
156095
155990
155949
156026
156033
156082
156087
156133
156186
156309
156315
156141
156082
156100
156166
156180
156175
156205
156212
156268
156285
156264
156277
156228
156200
156283
156311
156315
156340
156337
156390
156340
156315
156273
156276
156263
156318
156365
156375
156477
156490
156467
156461
156406
156359
156323
156278
156347
156359
156319
156349
156282
156293
156347
156311
156334
156389
156510
156535
156527
156460
156366
156373
156339
156296
156254
156319
156393
156437
156467
156511
156457
156422
156439
156433
156423
156405
156449
156442
156464
156479
156448
156493
156577
156559
156463
156505
156641
156636
156614
156698
156642
156579
156559
156541
156591
156607
156609
156634
156600
156581
156557
156623
156707
156705
156672
156664
156759
156788
156784
156748
156663
156670
156705
156656
156635
156607
156734
156880
156969
156965
156861
156817
156789
156747
156699
156638
156731
156808
156868
156883
156804
156769
156780
156784
156821
156796
156822
156793
156800
156831
156771
156786
156802
156817
156783
156843
156938
156934
156874
156913
156840
156787
156725
156715
156724
156827
156882
156983
156973
156945
156848
156871
156786
156824
156812
156786
156804
156808
156802
156774
156750
156762
156766
156811
156825
156817
156856
156853
156842
156874
156839
156817
156735
156752
156750
156688
156769
156751
156867
156933
156824
156794
156728
156758
156755
156724
156719
156735
156754
156800
156736
156665
156585
156670
156605
156602
156667
156741
156773
156757
156661
156632
156626
156595
156544
156503
156532
156575
156730
156801
156696
156669
156651
156664
156660
156629
156638
156597
156619
156601
156544
156562
156549
156603
156629
156550
156615
156602
156542
156551
156531
156551
156473
156441
156510
156472
156461
156511
156548
156541
156493
156435
156411
156513
156518
156390
156394
156404
156397
156475
156461
156383
156377
156376
156376
156342
156377
156422
156351
156242
156211
156319
156311
156294
156365
156285
156239
156218
156204
156270
156239
156227
156261
156180
156178
156109
156097
156126
156195
156215
156110
156099
156098
156064
156016
155928
156007
156090
156061
156025
156054
156104
156045
156083
156023
155939
155988
155990
156007
155946
155953
155963
155978
156027
155883
155879
155934
155937
155898
155930
155866
155838
155860
155832
155767
155701
155754
155794
155844
155870
155817
155788
155762
155706
155597
155563
155673
155759
155763
155778
155778
155759
155680
155661
155604
155561
155582
155584
155610
155697
155581
155630
155641
155629
155630
155570
155690
155739
155744
155733
155673
155635
155641
155662
155649
155585
155581
155598
155513
155429
155336
155236
155115
154993
154962
154968
154948
154964
154977
154980
155049
155190
155195
155201
155195
155094
155142
155244
155205
155253
155281
155279
155225
155244
155271
155237
155263
155316
155291
155241
155162
155154
155083
155113
155146
155133
155226
155171
155123
155140
155115
155078
155078
155022
154906
154894
154937
155010
155056
155091
155107
155102
155047
154976
154975
154892
155001
155063
155015
154917
154873
154873
154918
154865
154792
154694
154823
154872
154785
154768
154794
154809
154765
154752
154770
154724
154744
154785
154792
154789
154731
154689
154541
154506
154553
154556
154696
154697
154679
154689
154690
154675
154635
154562
154505
154420
154492
154611
154645
154566
154504
154519
154489
154498
154464
154408
154443
154475
154550
154639
154550
154498
154423
154411
154416
154343
154376
154388
154382
154360
154243
154252
154312
154358
154425
154274
154265
154261
154259
154250
154176
154105
154098
154172
154181
154182
154192
154169
154142
154083
154049
154039
154029
154068
154020
153968
153991
153974
153965
153974
153983
153946
153858
153849
153864
153770
153783
153832
153846
153923
153971
154057
153934
153803
153779
153681
153653
153727
153776
153818
153761
153735
153726
153700
153649
153608
153706
153730
153774
153827
153758
153686
153684
153690
153717
153591
153626
153678
153649
153722
153735
153684
153569
153546
153496
153374
153450
153533
153651
153627
153602
153634
153531
153502
153484
153458
153483
153501
153491
153469
153408
153424
153460
153425
153434
153338
153390
153460
153439
153419
153371
153344
153317
153318
153267
153265
153370
153398
153405
153368
153320
153296
153192
153180
153253
153174
153143
153225
153221
153154
153201
153207
153317
153277
153232
153133
153108
153143
153226
153261
153239
153244
153204
153074
153039
153024
153163
153297
153282
153209
153245
153202
153149
153114
153088
153030
153098
153127
153114
153167
153208
153224
153229
153144
153127
153129
153134
153190
153268
153209
153177
153214
153191
153176
153166
153096
153112
153127
153121
153173
153101
153067
153005
153096
153147
153125
153167
153216
153182
153162
153119
153135
153129
153128
153166
153145
153174
153162
153192
153223
153208
153189
153140
153140
153139
153087
153138
153194
153128
153113
153121
153110
153034
153051
153064
153008
153032
153061
153079
153045
153019
153074
152965
152972
153083
153065
153051
153130
153241
153270
153242
153234
153185
153131
153045
153040
153040
153043
153068
153075
153136
153153
153102
153008
153025
152958
153012
153063
153082
153072
153012
153028
152991
152911
152905
152979
153042
153128
153110
153088
153081
153049
152962
152888
152855
152900
152939
152971
153038
153053
153041
153121
152995
152978
152982
152889
152996
153032
153029
153008
152966
152978
152948
152974
153037
153002
153026
153025
152993
152973
152952
153036
153061
153130
153075
152907
152893
152961
152905
152927
152947
152969
152944
153053
153189
153156
153110
153066
153096
153099
153071
153074
153055
153028
153052
153010
152945
152979
153033
153072
153030
153031
153001
152911
152949
152983
153006
153064
153081
153069
153031
153032
152986
152943
152932
152932
152971
152947
152957
152938
152857
152884
152940
153009
153033
153026
153026
153042
153043
153049
153011
153023
152986
152997
153027
152952
152990
152989
153063
153072
153028
153113
153063
153035
153042
152967
153005
153130
153199
153162
153142
153145
153063
153002
152980
152967
152976
152939
152948
152841
152774
152793
152668
152597
152644
152669
152680
152737
152653
152670
152687
152803
152785
152820
152917
152931
152997
153064
153032
153010
152979
153045
153107
153026
152976
152940
152994
153007
153059
153102
153100
153121
153099
153088
153132
153016
153002
153047
153139
153102
153004
153049
153118
153129
153088
152972
152966
153035
153154
153191
153123
153124
153066
153073
153101
153170
153197
153236
153318
153285
153217
153238
153132
153135
153123
153046
153096
153165
153204
153179
153132
153186
153174
153143
153079
153028
153082
153181
153370
153316
153223
153239
153159
153128
153080
153152
153229
153310
153289
153251
153238
153236
153239
153208
153122
153052
153105
153182
153278
153293
153179
153140
153203
153186
153159
153121
153154
153198
153207
153251
153205
153227
153189
153164
153177
153078
153087
153152
153199
153238
153198
153186
153205
153149
153097
153074
153140
153176
153200
153222
153193
153193
153124
153082
153067
153058
153048
153087
153164
153232
153140
153160
153102
153096
153141
153099
153056
153051
153131
153153
153129
153176
153145
153156
153095
153032
153087
153126
153235
153268
153141
153142
153158
153111
153127
153068
153051
153147
153222
153223
153227
153239
153174
153136
153141
153122
153135
153159
153253
153245
153188
153260
153257
153218
153192
153116
153141
153220
153315
153317
153265
153368
153349
153247
153177
153234
153304
153328
153300
153320
153300
153283
153299
153238
153256
153212
153273
153395
153453
153442
153333
153341
153370
153333
153230
153233
153272
153240
153310
153259
153225
153316
153339
153349
153329
153266
153294
153331
153348
153384
153284
153249
153283
153394
153409
153392
153417
153382
153375
153403
153336
153460
153513
153453
153410
153380
153418
153428
153427
153410
153357
153413
153402
153487
153560
153463
153467
153459
153450
153490
153449
153432
153426
153441
153499
153497
153471
153552
153623
153585
153504
153534
153498
153561
153531
153463
153436
153421
153439
153478
153527
153689
153729
153646
153604
153549
153547
153544
153542
153517
153498
153575
153520
153506
153540
153520
153547
153564
153629
153602
153544
153609
153542
153590
153614
153542
153519
153571
153646
153646
153559
153599
153570
153529
153482
153426
153506
153590
153654
153746
153679
153703
153754
153701
153659
153539
153527
153599
153686
153713
153664
153682
153647
153581
153684
153711
153675
153678
153677
153654
153625
153669
153669
153615
153588
153566
153602
153695
153757
153762
153670
153721
153678
153619
153599
153614
153689
153711
153733
153787
153784
153831
153794
153737
153749
153734
153755
153765
153790
153801
153710
153741
153756
153751
153758
153681
153647
153680
153799
153853
153787
153804
153842
153767
153753
153706
153810
153822
153856
153853
153838
153860
153827
153780
153733
153735
153781
153841
153899
153881
153853
153871
153846
153795
153829
153816
153878
153956
153847
153816
153831
153853
153825
153776
153780
153799
153846
153819
153865
153871
153827
153906
153880
153898
153896
153814
153816
153834
153844
153953
153957
153911
153892
153844
153849
153801
153783
153867
154008
154086
154005
154046
154036
153993
154026
153948
153995
154031
154054
154094
154076
154144
154188
154218
154210
154234
154174
154123
154091
154111
154051
154024
154031
153911
153874
153835
153806
153645
153600
153730
153700
153740
153810
153770
153751
153790
153829
153881
153924
153943
153918
153961
154020
154090
154101
154051
154089
154119
154193
154219
154116
154179
154202
154139
154045
154017
154068
154147
154227
154209
154148
154237
154213
154113
154132
154114
154142
154178
154176
154122
154055
154073
154161
154124
154092
154068
154149
154133
154167
154215
154155
154203
154253
154267
154216
154213
154272
154242
154242
154288
154273
154217
154201
154154
154128
154191
154216
154229
154229
154185
154108
154107
154096
154096
154073
154096
154166
154069
154109
154148
154183
154333
154361
154258
154157
154148
154243
154257
154284
154278
154235
154249
154226
154189
154196
154163
154158
154121
154204
154261
154242
154299
154287
154289
154143
154069
154135
154220
154322
154345
154215
154223
154211
154151
154095
154120
154218
154211
154304
154362
154294
154193
154186
154166
154124
154061
154067
154111
154154
154196
154192
154247
154254
154143
154138
154071
154103
154106
154199
154203
154121
154128
154148
154143
154047
154011
154116
154081
154062
154062
154054
154133
154183
154083
154098
154074
154076
154130
154098
154052
154044
154056
154086
154121
154081
154062
154145
154105
154104
154215
154184
154198
154145
154125
154102
154087
154171
154252
154233
154203
154131
154131
154175
154160
154148
154144
154178
154209
154199
154210
154245
154275
154236
154231
154212
154251
154282
154298
154358
154354
154340
154313
154332
154327
154297
154215
154149
154121
154211
154270
154274
154334
154352
154308
154265
154288
154289
154239
154273
154304
154266
154261
154258
154245
154162
154107
154270
154277
154299
154311
154330
154347
154358
154284
154236
154163
154202
154210
154193
154296
154388
154448
154413
154385
154394
154303
154274
154286
154316
154334
154329
154304
154366
154313
154220
154215
154266
154315
154292
154371
154328
154306
154374
154329
154280
154219
154262
154248
154294
154372
154340
154403
154429
154376
154327
154295
154315
154308
154345
154414
154330
154340
154355
154405
154480
154437
154413
154373
154415
154441
154407
154411
154487
154427
154392
154365
154428
154329
154366
154432
154431
154509
154469
154431
154386
154367
154470
154484
154509
154559
154542
154531
154526
154505
154488
154445
154444
154454
154506
154599
154566
154611
154618
154589
154569
154481
154489
154491
154492
154511
154492
154587
154611
154656
154708
154617
154575
154547
154591
154646
154611
154640
154649
154639
154538
154444
154474
154494
154528
154611
154625
154634
154733
154707
154637
154600
154632
154591
154607
154610
154569
154603
154604
154618
154644
154633
154652
154645
154642
154684
154626
154611
154630
154628
154632
154613
154635
154575
154577
154659
154598
154632
154655
154715
154702
154589
154666
154672
154660
154639
154737
154781
154786
154739
154676
154644
154693
154683
154707
154781
154769
154779
154789
154806
154765
154698
154694
154720
154763
154856
154836
154860
154893
154819
154808
154766
154798
154817
154801
154809
154776
154830
154866
154854
154785
154728
154854
154910
154903
154946
154869
154801
154770
154873
154935
154917
154922
154868
154808
154923
154904
154874
154856
154874
154810
154718
154818
154859
154837
154844
154839
154882
154849
154841
154834
154736
154729
154781
154838
154940
154915
154895
154860
154879
154900
154884
154953
154960
154949
154993
155017
155147
155184
155156
155119
155101
155098
155018
154960
154959
154910
154907
154924
154926
154821
154698
154564
154492
154579
154623
154593
154654
154704
154650
154637
154609
154609
154668
154774
154888
154887
154990
155012
154982
154987
154878
154859
154882
154945
154971
155013
155049
155076
155087
155057
154970
154975
154996
154963
154996
154999
155036
155071
155092
155117
155094
155067
155036
155010
155012
154995
155090
155158
155123
155159
155123
155089
155138
155065
155155
155187
155231
155312
155220
155160
155105
155128
155190
155295
155289
155188
155225
155244
155229
155231
155162
155223
155263
155232
155232
155198
155163
155302
155346
155260
155192
155226
155235
155175
155254
155263
155328
155324
155295
155233
155276
155347
155403
155435
155374
155380
155389
155367
155390
155325
155300
155367
155408
155384
155437
155438
155428
155438
155415
155379
155323
155330
155350
155330
155341
155333
155366
155415
155438
155358
155334
155370
155384
155357
155293
155219
155276
155295
155368
155382
155241
155282
155232
155233
155215
155201
155288
155285
155274
155203
155116
155151
155175
155202
155284
155247
155324
155219
155176
155145
155075
155053
155061
155123
155188
155130
155199
155199
155209
155200
155159
155141
155139
155153
155164
155124
155212
155246
155250
155147
155062
155095
155143
155118
155184
155203
155203
155218
155271
155271
155218
155170
155146
155153
155194
155179
155177
155262
155280
155247
155217
155268
155266
155237
155311
155241
155172
155252
155258
155186
155162
155213
155229
155206
155297
155277
155302
155307
155322
155275
155178
155183
155180
155142
155182
155291
155374
155394
155446
155378
155190
155169
155239
155266
155264
155242
155273
155198
155248
155264
155205
155267
155258
155221
155197
155181
155170
155151
155193
155209
155207
155256
155199
155153
155192
155250
155278
155240
155321
155320
155209
155158
155163
155122
155117
155099
155117
155131
155176
155137
155038
155035
155095
155218
155219
155181
155187
155166
155166
155130
155044
155002
154986
154955
154995
155118
155296
155296
155207
155176
155093
155069
155090
155067
155094
155052
155072
155062
155078
155086
155030
155036
155051
155000
154995
154926
154929
155053
155177
155196
155158
155112
155045
155020
155015
155015
155083
155025
155016
155024
154970
154924
154980
155024
154964
155001
155067
155003
155016
155073
155004
155000
155025
155025
155059
155052
155060
155102
155065
154987
154958
154958
154996
154995
154988
155016
155008
155019
155038
155002
154926
154959
154980
155023
155057
155029
155016
154998
155009
155010
154938
154964
154985
155064
155038
154966
154981
154988
155006
154960
154852
154880
154899
154888
154963
154997
155041
155023
154955
154932
154832
154818
154872
154809
154821
154909
155030
155063
155036
154952
154887
154860
154824
154826
154794
154806
154966
155007
154965
154871
154887
154922
154880
154888
154887
154849
154887
154899
154909
154899
154869
154867
154778
154734
154823
154842
154953
155009
154960
154971
154953
154974
154940
154828
154759
154772
154901
154963
154933
154888
154793
154823
154915
154916
154857
154776
154808
154836
154797
154701
154671
154757
154786
154766
154797
154773
154793
154789
154793
154777
154690
154734
154795
154846
154833
154779
154831
154743
154766
154769
154677
154675
154704
154692
154703
154671
154663
154673
154721
154720
154648
154695
154735
154716
154719
154757
154791
154707
154682
154762
154760
154733
154773
154773
154707
154708
154798
154800
154883
154831
154638
154601
154640
154612
154628
154566
154558
154425
154365
154352
154270
154265
154315
154365
154379
154389
154449
154464
154453
154472
154486
154527
154593
154662
154673
154636
154613
154590
154661
154684
154640
154659
154626
154586
154535
154532
154601
154684
154751
154717
154604
154604
154665
154702
154664
154686
154704
154761
154762
154779
154717
154655
154619
154610
154533
154500
154563
154560
154633
154675
154582
154576
154552
154552
154618
154627
154681
154701
154680
154655
154565
154603
154589
154575
154551
154585
154642
154663
154637
154602
154593
154644
154680
154704
154587
154560
154563
154516
154505
154528
154483
154599
154555
154505
154484
154457
154456
154483
154522
154556
154438
154437
154447
154425
154381
154407
154486
154511
154419
154467
154482
154415
154317
154310
154311
154308
154430
154422
154358
154386
154312
154303
154292
154263
154228
154187
154191
154250
154343
154324
154188
154151
154114
154138
154157
154168
154186
154184
154083
153979
153900
153835
153806
153906
153986
154078
154080
154001
153943
153972
153851
153808
153766
153722
153775
153791
153872
153882
153847
153815
153746
153786
153797
153720
153646
153563
153661
153727
153740
153766
153662
153629
153647
153586
153601
153702
153788
153791
153724
153707
153637
153566
153579
153585
153558
153632
153802
153763
153685
153758
153648
153686
153682
153656
153682
153686
153762
153733
153742
153764
153710
153719
153659
153611
153626
153650
153735
153696
153644
153742
153689
153721
153737
153705
153614
153624
153681
153700
153721
153701
153682
153757
153785
153703
153695
153700
153718
153721
153694
153699
153589
153521
153594
153623
153612
153630
153646
153622
153593
153531
153471
153512
153568
153644
153635
153510
153541
153544
153558
153535
153423
153441
153491
153475
153447
153454
153481
153561
153542
153552
153508
153544
153501
153489
153456
153446
153499
153480
153507
153540
153562
153528
153504
153432
153393
153377
153508
153505
153540
153601
153540
153507
153508
153533
153477
153493
153520
153480
153503
153511
153492
153511
153446
153377
153388
153482
153556
153608
153512
153504
153522
153556
153473
153418
153390
153450
153531
153559
153544
153541
153498
153491
153474
153504
153525
153471
153539
153562
153504
153469
153396
153446
153523
153561
153505
153445
153504
153449
153439
153505
153521
153516
153530
153611
153568
153522
153574
153524
153558
153635
153601
153612
153571
153537
153488
153392
153502
153542
153601
153615
153581
153578
153558
153610
153584
153533
153552
153543
153650
153734
153762
153690
153661
153689
153654
153688
153710
153711
153816
153763
153589
153567
153578
153571
153634
153613
153651
153624
153618
153788
153822
153779
153734
153679
153643
153601
153721
153741
153730
153755
153738
153741
153743
153821
153844
153802
153850
153815
153764
153697
153643
153703
153772
153808
153851
153894
153938
153915
153868
153913
153864
153878
153865
153914
153926
153896
153847
153832
153843
153826
153840
153845
153852
153806
153766
153772
153815
153814
153860
153900
153888
153969
153969
153875
153860
153836
153838
153832
153889
153927
153896
153830
153789
153793
153774
153767
153826
153820
153861
153891
153898
153853
153840
153837
153818
153724
153748
153799
153802
153829
153850
153867
153859
153945
153993
153993
154065
154135
154211
154144
154066
154024
153986
153959
153922
153835
153818
153772
153763
153759
153709
153726
153553
153443
153399
153362
153500
153596
153620
153669
153632
153666
153645
153684
153665
153666
153806
153885
153906
153915
153898
153880
153826
153796
153865
153832
153820
153865
153913
153950
153866
153873
153935
153969
153898
153847
153952
153997
153985
153909
153842
153804
153829
153941
153961
153951
154043
154012
154037
154068
153993
153991
153945
153861
153888
153855
153991
154038
154009
154017
154052
154112
154122
154042
154068
154015
154038
154070
154028
154043
154048
154067
154034
153987
153994
153980
154025
154036
154083
154099
154011
153999
154001
153987
153974
153957
153990
154012
154047
154104
154129
154202
154199
154158
154155
154102
154153
154228
154207
154187
154174
154204
154182
154190
154246
154230
154290
154249
154241
154200
154162
154114
154129
154203
154216
154259
154290
154275
154283
154262
154181
154133
154096
154108
154134
154088
154141
154155
154124
154126
154125
154124
154168
154155
154166
154071
154148
154186
154111
154141
154072
154099
154059
153992
154026
153964
154000
154025
154076
154096
154063
154054
154003
153999
154055
154000
154058
154075
154063
154056
154032
153980
153908
153888
153877
153885
154034
154133
154122
154073
154048
154040
154027
154039
153983
153944
153955
153963
153967
153988
153990
154057
154145
154158
154089
153963
154006
154089
154057
154056
154051
154115
154141
154123
154096
154074
154084
154102
154138
154120
154109
154156
154132
154115
154104
154065
154109
154179
154266
154228
154145
154149
154179
154216
154195
154142
154163
154201
154180
154166
154178
154184
154138
154076
154154
154218
154283
154297
154306
154235
154143
154196
154207
154203
154238
154186
154235
154322
154263
154262
154272
154220
154162
154183
154221
154175
154176
154249
154296
154309
154249
154214
154123
154101
154107
154127
154254
154270
154278
154278
154252
154268
154207
154179
154175
154112
154099
154120
154157
154219
154242
154299
154238
154157
154122
154064
154065
154084
154138
154179
154238
154172
154081
154026
154074
154069
154118
154147
154094
154083
154102
154110
154064
154086
154086
154043
154019
154027
154129
154167
154115
154135
154085
154087
154080
153985
153981
153943
154006
154014
154028
154093
154111
154061
154038
154022
154036
154005
154064
154073
153973
154042
154061
154063
154049
154013
154086
154101
154084
154049
153997
153968
153991
154070
154154
153994
154027
154134
154148
154094
154038
154071
154123
154149
154072
154042
154092
154093
154071
154152
154227
154236
154143
154109
154121
154093
154124
154219
154190
154154
154158
154218
154176
154126
154106
154083
154133
154156
154113
154113
154118
154125
154142
154132
154112
154015
154060
154134
154126
154119
154115
154204
154183
154127
154192
154138
154110
154199
154216
154176
154172
154201
154209
154221
154184
154157
154275
154312
154310
154307
154163
154181
154121
154022
154160
154209
154288
154323
154359
154311
154234
154221
154204
154199
154197
154160
154172
154196
154245
154343
154348
154373
154391
154358
154371
154270
154241
154307
154324
154278
154240
154220
154189
154307
154395
154350
154364
154383
154380
154318
154281
154272
154249
154209
154301
154284
154274
154314
154367
154397
154302
154234
154265
154266
154336
154361
154302
154279
154289
154304
154268
154324
154344
154275
154272
154222
154220
154242
154267
154269
154227
154328
154392
154394
154411
154385
154412
154386
154433
154565
154617
154638
154569
154550
154441
154322
154311
154321
154351
154336
154275
154222
154115
154020
153965
153941
153912
154006
154051
154018
154012
154071
154113
154118
154143
154100
154179
154241
154308
154319
154366
154405
154353
154369
154329
154275
154312
154316
154351
154432
154405
154477
154453
154398
154353
154304
154308
154338
154444
154476
154438
154537
154556
154478
154431
154370
154396
154461
154423
154393
154331
154387
154402
154352
154417
154402
154383
154387
154402
154382
154396
154396
154366
154443
154469
154418
154445
154441
154395
154401
154435
154504
154496
154458
154412
154418
154439
154398
154411
154467
154494
154584
154649
154539
154447
154441
154438
154457
154484
154493
154451
154485
154507
154463
154444
154437
154484
154533
154552
154618
154547
154573
154582
154551
154522
154482
154398
154418
154441
154542
154618
154685
154666
154689
154679
154615
154547
154568
154598
154629
154609
154629
154532
154595
154627
154564
154548
154511
154509
154582
154613
154691
154600
154547
154515
154503
154514
154515
154601
154589
154472
154509
154474
154460
154431
154363
154383
154385
154412
154416
154371
154427
154456
154463
154417
154362
154389
154390
154450
154464
154426
154460
154383
154321
154317
154328
154463
154454
154493
154460
154420
154469
154515
154483
154415
154371
154356
154410
154485
154538
154530
154569
154567
154502
154451
154407
154426
154499
154478
154503
154472
154501
154462
154368
154404
154537
154556
154587
154618
154601
154628
154704
154609
154530
154543
154507
154566
154588
154636
154608
154541
154572
154596
154564
154519
154465
154551
154613
154586
154605
154559
154595
154547
154495
154449
154422
154472
154506
154621
154644
154588
154565
154524
154512
154514
154444
154434
154503
154642
154695
154669
154692
154609
154503
154472
154490
154554
154614
154643
154653
154615
154627
154514
154515
154523
154499
154513
154633
154618
154614
154556
154616
154611
154533
154494
154460
154471
154482
154579
154610
154546
154574
154546
154479
154475
154550
154624
154642
154596
154561
154555
154694
154740
154620
154521
154476
154482
154568
154593
154548
154496
154523
154536
154449
154450
154413
154442
154462
154465
154502
154453
154427
154519
154611
154642
154620
154598
154580
154589
154596
154506
154547
154596
154572
154542
154484
154472
154433
154411
154403
154432
154493
154475
154438
154407
154369
154417
154455
154454
154473
154460
154484
154419
154354
154354
154352
154345
154349
154349
154327
154324
154457
154484
154420
154448
154415
154360
154331
154304
154430
154485
154492
154423
154372
154335
154304
154284
154319
154420
154418
154363
154328
154323
154309
154281
154248
154195
154238
154333
154347
154296
154403
154424
154337
154248
154182
154218
154249
154264
154258
154225
154269
154297
154229
154213
154211
154236
154207
154228
154234
154210
154227
154206
154172
154202
154171
154166
154237
154282
154233
154102
154216
154275
154247
154254
154203
154274
154224
154196
154213
154156
154185
154209
154117
154151
154167
154168
154176
154318
154309
154212
154233
154268
154201
154151
154121
154189
154186
154199
154208
154226
154169
154151
154126
154094
154071
154098
154139
154144
154154
154048
154044
154071
154093
154089
154153
154160
154093
154034
154039
154067
154201
154276
154246
154221
154146
154118
154090
154097
154054
154059
154112
154141
154158
154092
154003
154028
154031
154063
154258
154211
154193
154233
154155
154133
154126
154113
154176
154224
154265
154187
154194
154202
154120
154118
154182
154134
154028
154052
153993
153855
153788
153810
153737
153699
153708
153742
153673
153675
153734
153729
153744
153852
153856
153849
153831
153810
153780
153946
154019
153996
154057
154071
153927
153897
153861
153871
153944
153956
153999
153987
153975
153941
153924
153917
153832
153877
153924
153980
154032
154033
154012
153979
153957
154005
153984
154006
153978
153979
154018
153972
153963
153975
153976
153931
153900
153927
153923
153877
153892
153926
153974
153995
153965
153956
153912
153932
153925
153980
154001
153991
153952
153866
153869
153871
153849
153939
153906
153894
153949
153932
154002
153961
153902
153872
153895
154038
154053
154023
154005
153997
154005
154012
153911
153920
153979
154077
154051
153985
153998
153991
154010
154040
154005
153968
153961
154015
153978
153976
154017
153973
154060
154113
154040
153995
153955
153949
153965
154010
154102
154161
154214
154186
154067
153965
153885
153918
153974
153969
153978
153974
153988
153973
153925
153900
153829
153853
153855
153855
153875
153856
153854
153868
153842
153848
153861
153844
153751
153766
153813
153793
153825
153880
153863
153797
153660
153698
153712
153775
153741
153687
153722
153768
153741
153722
153654
153686
153665
153733
153751
153715
153740
153803
153827
153786
153661
153637
153586
153582
153650
153674
153701
153704
153682
153624
153604
153676
153681
153652
153697
153692
153671
153665
153635
153633
153579
153622
153672
153652
153656
153676
153652
153644
153660
153637
153578
153545
153528
153600
153727
153763
153701
153640
153691
153646
153526
153519
153527
153578
153637
153697
153705
153674
153632
153579
153542
153540
153494
153551
153535
153482
153508
153571
153534
153454
153441
153527
153458
153459
153511
153459
153523
153577
153530
153468
153425
153455
153493
153495
153560
153504
153567
153612
153606
153577
153475
153466
153424
153476
153486
153423
153486
153520
153524
153493
153420
153458
153461
153487
153443
153458
153503
153506
153529
153525
153489
153497
153423
153501
153501
153450
153504
153513
153529
153486
153519
153512
153482
153499
153461
153425
153471
153552
153543
153494
153388
153403
153423
153399
153446
153453
153449
153463
153471
153475
153431
153435
153480
153449
153494
153479
153458
153498
153536
153482
153410
153385
153422
153422
153428
153433
153489
153486
153522
153511
153406
153435
153454
153400
153410
153476
153539
153614
153592
153450
153374
153414
153412
153431
153581
153622
153629
153609
153528
153413
153437
153535
153489
153466
153541
153544
153609
153620
153570
153483
153539
153596
153576
153508
153492
153458
153472
153552
153709
153626
153449
153448
153414
153522
153583
153512
153533
153498
153515
153492
153507
153573
153644
153636
153650
153608
153575
153570
153495
153561
153540
153570
153530
153488
153526
153559
153643
153609
153600
153592
153527
153549
153540
153568
153631
153613
153634
153622
153601
153535
153501
153569
153564
153572
153639
153667
153732
153725
153681
153683
153670
153684
153690
153691
153748
153670
153706
153699
153644
153657
153640
153696
153713
153700
153701
153712
153725
153764
153758
153711
153685
153749
153667
153607
153589
153571
153616
153681
153713
153723
153649
153647
153701
153680
153670
153639
153695
153694
153696
153620
153497
153548
153573
153676
153681
153581
153598
153650
153700
153653
153573
153610
153601
153566
153570
153596
153652
153628
153638
153542
153501
153593
153608
153533
153597
153657
153736
153844
153784
153704
153678
153714
153781
153768
153821
153851
153912
153863
153762
153648
153583
153590
153541
153582
153550
153392
153354
153291
153258
153246
153227
153294
153360
153355
153355
153359
153439
153455
153560
153581
153542
153623
153632
153628
153620
153620
153662
153726
153760
153673
153611
153587
153590
153634
153678
153743
153851
153766
153686
153670
153653
153729
153781
153857
153774
153753
153809
153817
153834
153839
153824
153804
153768
153803
153808
153686
153711
153706
153762
153870
153866
153834
153842
153786
153825
153826
153816
153855
153869
153785
153787
153881
153909
153930
153888
153806
153872
153854
153862
153903
153896
153991
153951
153876
153889
153926
153933
153935
153891
153828
153746
153824
153873
153915
153971
153980
154048
153991
153997
153926
153800
153809
153847
153911
153944
153964
154017
154071
154108
154090
154014
153985
153988
153984
153994
153980
154004
154025
154062
154044
154074
154106
154026
153986
154020
154057
154056
154003
153937
153916
153853
153890
153935
153946
154000
154028
154059
153986
153924
153983
154000
153975
153962
153948
153976
153932
153952
153943
153939
153959
153866
153863
153804
153760
153845
153871
153872
153879
153937
153893
153825
153817
153904
153898
153883
153897
153838
153822
153875
153911
153852
153823
153843
153868
153923
153936
153974
153949
153943
153924
153889
153862
153909
153917
153903
153812
153877
153923
153990
154003
153935
153893
153917
153931
153940
153984
153977
153929
153896
153894
153849
153877
153940
153971
153958
153970
154010
154045
154057
154018
153889
153846
153925
154034
154073
154094
154115
154011
154012
153980
154016
154042
154024
153975
153973
153965
153924
153993
153982
153988
153957
153983
154019
154102
154096
154067
154071
154082
154086
154097
154018
153998
153943
153967
153956
154012
154123
154156
154201
154184
154120
154130
154140
154098
154094
154114
154192
154217
154193
154164
154106
154149
154146
154131
154133
154161
154219
154249
154215
154212
154101
154178
154229
154170
154183
154179
154189
154165
154188
154193
154188
154312
154311
154242
154238
154216
154235
154238
154251
154351
154354
154366
154321
154292
154228
154268
154356
154378
154374
154330
154228
154232
154249
154289
154394
154414
154389
154369
154380
154362
154306
154321
154313
154298
154320
154257
154307
154326
154338
154353
154387
154399
154349
154345
154400
154398
154423
154415
154408
154402
154361
154334
154327
154372
154385
154343
154373
154359
154347
154337
154275
154320
154414
154395
154399
154377
154416
154416
154377
154420
154327
154253
154291
154328
154363
154371
154423
154433
154406
154373
154305
154369
154401
154447
154372
154347
154422
154427
154454
154400
154300
154295
154271
154306
154300
154299
154361
154355
154335
154459
154400
154378
154393
154366
154330
154391
154424
154381
154371
154420
154411
154423
154414
154432
154392
154345
154418
154383
154363
154370
154304
154313
154382
154374
154381
154398
154454
154445
154397
154366
154286
154243
154199
154186
154234
154216
154314
154428
154455
154475
154416
154407
154380
154310
154285
154297
154315
154403
154405
154395
154345
154370
154415
154398
154353
154314
154300
154288
154303
154330
154316
154347
154429
154409
154360
154347
154349
154404
154423
154369
154284
154247
154277
154297
154363
154362
154433
154464
154405
154405
154303
154278
154253
154181
154134
154136
154222
154267
154434
154441
154356
154351
154307
154195
154203
154220
154256
154295
154316
154427
154438
154367
154344
154304
154284
154270
154340
154386
154317
154335
154251
154248
154283
154201
154228
154286
154334
154322
154331
154333
154311
154387
154381
154314
154293
154321
154422
154454
154442
154486
154467
154430
154386
154315
154217
154203
154259
154211
154100
154045
153951
153874
153892
153890
153863
153956
153980
153971
153971
153993
153935
153943
153985
153974
154022
154061
154158
154196
154208
154230
154177
154099
154100
154132
154092
154071
154097
154199
154324
154253
154122
154078
154041
154062
154158
154197
154241
154248
154221
154171
154104
154094
154134
154202
154227
154152
154175
154203
154160
154176
154101
154126
154090
153999
153977
153949
153983
154023
154114
154205
154205
154177
154095
154060
154034
153960
154001
154024
154044
154045
153996
154018
154026
154022
153974
153994
154080
154165
154138
154071
153948
153936
153989
154006
153975
153970
154001
154042
154055
154046
154017
153986
153974
153915
153932
153990
153996
154020
154065
154046
153942
153936
153975
153993
153958
153911
153916
153983
154050
154094
154076
154055
153995
153973
153991
153956
154011
154063
154090
154134
154050
154015
154014
153957
153901
153864
153986
154049
154080
154056
153968
153933
153872
153878
153887
153854
153870
153829
153841
153864
153880
154003
153983
153907
153904
153854
153851
153866
153804
153842
153794
153834
153856
153791
153785
153836
153842
153880
153886
153937
153913
153817
153871
153864
153816
153754
153832
153862
153820
153897
153833
153824
153837
153833
153756
153764
153836
153875
153916
153932
153817
153719
153699
153699
153762
153757
153833
153883
153910
153947
153893
153883
153855
153781
153767
153800
153885
153961
153939
153911
153808
153784
153767
153732
153806
153785
153840
153861
153896
153902
153762
153777
153799
153795
153799
153741
153805
153827
153805
153833
153850
153851
153789
153759
153722
153660
153685
153768
153786
153743
153692
153631
153587
153642
153726
153733
153719
153673
153627
153639
153666
153770
153809
153756
153666
153610
153639
153645
153598
153598
153624
153687
153718
153674
153625
153581
153644
153692
153654
153633
153635
153599
153593
153562
153545
153497
153555
153630
153648
153614
153544
153562
153563
153563
153655
153677
153672
153682
153644
153597
153544
153514
153557
153624
153592
153525
153646
153671
153630
153589
153620
153638
153609
153538
153486
153504
153597
153606
153648
153661
153632
153586
153578
153503
153553
153546
153555
153553
153564
153603
153645
153618
153555
153594
153569
153557
153640
153598
153590
153572
153540
153541
153509
153519
153560
153471
153528
153633
153617
153566
153521
153535
153533
153577
153486
153509
153593
153556
153556
153569
153525
153548
153587
153538
153457
153521
153543
153543
153616
153582
153465
153421
153437
153469
153423
153440
153480
153506
153552
153561
153529
153476
153413
153391
153431
153404
153435
153513
153533
153541
153521
153446
153381
153343
153375
153388
153454
153591
153559
153517
153460
153492
153478
153423
153401
153422
153454
153490
153530
153495
153465
153422
153388
153390
153409
153423
153529
153547
153535
153525
153517
153490
153448
153367
153358
153298
153392
153484
153578
153617
153500
153461
153465
153450
153384
153382
153422
153444
153419
153394
153359
153345
153346
153303
153284
153330
153418
153449
153413
153386
153352
153312
153294
153318
153299
153279
153354
153338
153296
153334
153357
153308
153281
153231
153209
153198
153237
153331
153381
153369
153330
153263
153260
153287
153217
153119
153181
153262
153391
153495
153538
153499
153411
153369
153325
153319
153413
153378
153371
153340
153252
153288
153242
153147
153078
152947
152903
152853
152851
152872
152934
152917
152842
152859
152881
152828
152975
153092
153135
153140
153119
153116
153173
153183
153170
153132
153176
153218
153215
153195
153140
153156
153239
153208
153233
153153
153159
153195
153274
153307
153349
153368
153335
153264
153248
153184
153255
153273
153253
153308
153366
153362
153243
153195
153214
153176
153288
153310
153291
153275
153233
153249
153238
153275
153283
153347
153361
153336
153359
153311
153291
153282
153193
153144
153238
153250
153284
153309
153269
153261
153235
153246
153243
153293
153361
153301
153316
153302
153272
153313
153353
153265
153226
153269
153346
153287
153278
153339
153347
153351
153368
153345
153328
153323
153285
153239
153316
153373
153328
153311
153345
153383
153323
153235
153237
153203
153245
153312
153299
153304
153294
153284
153300
153345
153291
153240
153237
153219
153274
153306
153372
153403
153306
153263
153251
153179
153173
153194
153174
153130
153155
153223
153189
153182
153199
153166
153128
153145
153127
153175
153181
153197
153119
153083
153092
153035
153088
153087
153167
153257
153240
153220
153186
153176
153120
153052
153063
153026
153033
153073
153121
153218
153170
153121
153099
153104
153148
153185
153205
153151
153152
153199
153119
153091
153094
153055
153043
153130
153165
153138
153183
153237
153197
153138
153134
153139
153171
153121
153122
153142
153166
153280
153267
153209
153243
153164
153148
153206
153166
153174
153241
153279
153264
153221
153164
153159
153215
153237
153264
153280
153236
153254
153317
153274
153269
153242
153212
153165
153198
153148
153141
153183
153196
153233
153331
153261
153233
153235
153311
153352
153256
153254
153212
153140
153129
153074
153210
153342
153301
153228
153227
153275
153303
153191
153207
153216
153238
153252
153243
153231
153188
153188
153170
153145
153146
153142
153133
153201
153323
153284
153224
153231
153142
153126
153182
153159
153173
153286
153369
153386
153294
153313
153251
153192
153180
153137
153154
153171
153213
153282
153219
153147
153109
153064
153060
153101
153179
153175
153133
153121
153167
153183
153186
153213
153259
153214
153192
153188
153218
153194
153203
153198
153128
153124
153123
153024
153038
153034
152991
152967
153014
153193
153260
153263
153177
153149
153143
153158
153163
153113
153114
153099
153072
153050
153032
153008
153066
153115
153156
153182
153135
153204
153114
153034
153056
153090
153156
153193
153209
153170
153049
153137
153106
153047
153020
153069
153146
153182
153190
153189
153201
153232
153175
153128
153105
153053
153068
153118
153102
153176
153147
153136
153084
153112
153108
153144
153164
153156
153206
153198
153160
153185
153163
153127
153093
153025
153115
153166
153205
153155
153098
153088
153015
153057
153058
153086
153134
153138
153150
153192
153175
153189
153151
153082
153043
153041
153069
153144
153210
153247
153208
153224
153204
153133
153144
153150
153181
153181
153226
153223
153255
153305
153281
153214
153192
153116
153104
153140
153175
153141
153104
153275
153307
153195
153164
153115
153103
153120
153091
153112
153162
153238
153287
153269
153172
153108
153088
153081
153059
153107
153088
153192
153272
153222
153165
153134
153084
153126
153206
153242
153197
153242
153195
153121
153047
152987
152998
153078
153161
153152
153088
153212
153228
153190
153128
153070
153078
153087
153099
153104
153135
153285
153275
153249
153263
153212
153219
153323
153386
153389
153384
153414
153261
153189
153146
153114
153113
153102
153048
152989
152868
152849
152810
152704
152694
152734
152809
152809
152824
152824
152860
152931
152916
152934
153003
153005
153082
153117
153095
153120
153132
153194
153201
153191
153119
153050
153072
153093
153156
153185
153225
153208
153177
153231
153209
153174
153194
153125
153082
153126
153153
153224
153207
153213
153203
153173
153214
153203
153201
153181
153153
153151
153079
153030
153064
153171
153285
153297
153273
153284
153200
153203
153218
153151
153149
153101
153120
153171
153136
153085
153078
153198
153263
153150
153201
153227
153261
153181
153168
153160
153131
153156
153202
153138
153040
152924
153007
153146
153194
153239
153164
153145
153141
153068
153115
153145
153112
153083
153101
153167
153170
153152
153155
153139
153164
153055
152975
153037
153104
153166
153160
153138
153127
153108
153064
152987
152968
152950
152968
152988
152970
152985
153035
153060
153061
153006
153037
152976
152983
152949
152923
152933
152943
152968
152921
152864
152860
152861
152962
152947
152944
152976
152918
152857
152837
152750
152795
152796
152834
152885
152912
152898
152841
152803
152781
152737
152701
152773
152809
152785
152760
152853
152847
152860
152827
152802
152830
152885
152898
152868
152838
152796
152785
152802
152767
152707
152767
152757
152701
152716
152766
152907
152945
152880
152804
152730
152742
152760
152787
152801
152839
152889
152895
152911
152903
152834
152853
152859
152872
152947
152913
152888
152903
152849
152800
152729
152720
152733
152801
152978
152957
152943
152890
152850
152841
152812
152826
152801
152867
152821
152778
152833
152825
152851
152832
152869
152893
152841
152939
152930
152871
152827
152818
152872
152886
152831
152841
152857
152844
152849
152796
152836
152894
152842
152806
152808
152774
152782
152869
152921
152881
152883
152849
152808
152788
152777
152811
152810
152817
152832
152783
152742
152779
152769
152780
152813
152869
152857
152878
152813
152772
152824
152827
152782
152767
152759
152794
152776
152816
152835
152735
152729
152752
152678
152691
152723
152762
152823
152850
152762
152700
152734
152757
152696
152661
152587
152618
152658
152665
152706
152661
152731
152773
152728
152674
152627
152670
152590
152588
152653
152684
152728
152633
152552
152572
152604
152693
152602
152612
152645
152676
152641
152651
152653
152575
152532
152470
152453
152486
152550
152546
152486
152522
152534
152490
152491
152467
152415
152385
152439
152505
152527
152551
152557
152555
152499
152506
152495
152457
152382
152434
152476
152510
152484
152576
152562
152598
152547
152590
152593
152576
152569
152539
152513
152532
152423
152466
152462
152451
152492
152474
152497
152464
152376
152360
152392
152530
152518
152589
152587
152506
152516
152536
152446
152350
152270
152348
152469
152536
152647
152617
152594
152604
152564
152514
152418
152453
152445
152406
152362
152363
152391
152463
152598
152571
152509
152419
152385
152394
152394
152307
152361
152509
152557
152530
152473
152506
152480
152488
152518
152501
152536
152553
152496
152473
152399
152429
152604
152604
152564
152483
152461
152464
152465
152459
152414
152454
152460
152569
152580
152536
152538
152561
152563
152470
152373
152344
152390
152528
152655
152567
152500
152454
152451
152384
152349
152397
152400
152389
152382
152409
152432
152430
152474
152510
152448
152418
152342
152333
152369
152345
152355
152374
152331
152267
152225
152251
152250
152289
152365
152341
152328
152343
152291
152231
152250
152296
152342
152426
152374
152336
152293
152361
152363
152361
152372
152433
152438
152450
152452
152434
152367
152310
152244
152119
152086
152060
152045
152021
151931
151865
151881
151939
151954
151887
151749
151795
151880
151939
151940
151929
151924
151992
152039
152154
152176
152097
152036
152062
152079
152016
152115
152173
152135
152028
151998
152039
152031
152062
152126
152169
152169
152181
152191
152126
152057
152024
152036
151980
152013
152036
152047
152051
152033
151976
151890
151912
151941
151956
151959
151951
151990
152042
152006
151933
151831
151855
151817
151873
151990
152049
152005
151926
151887
151820
151789
151923
151951
151956
151887
151881
151933
151894
151920
151856
151789
151833
151852
151835
151895
151892
151889
151838
151796
151831
151800
151803
151836
151888
151937
151869
151847
151829
151832
151771
151717
151706
151690
151705
151820
151825
151930
151980
151939
151855
151742
151734
151737
151727
151738
151735
151782
151793
151758
151724
151707
151746
151692
151638
151658
151626
151762
151804
151704
151587
151480
151528
151622
151639
151627
151542
151578
151661
151694
151673
151650
151590
151568
151525
151547
151485
151485
151528
151551
151449
151343
151370
151412
151473
151477
151474
151510
151476
151387
151367
151328
151306
151364
151367
151386
151388
151368
151329
151394
151460
151400
151358
151300
151389
151463
151438
151454
151407
151368
151373
151337
151346
151342
151339
151332
151353
151408
151363
151331
151299
151327
151376
151354
151299
151355
151345
151380
151456
151451
151320
151237
151235
151239
151353
151475
151484
151512
151430
151360
151321
151178
151233
151259
151287
151316
151378
151400
151450
151499
151428
151361
151354
151283
151252
151277
151213
151175
151236
151298
151330
151357
151364
151281
151278
151275
151252
151222
151196
151277
151259
151259
151355
151332
151296
151275
151269
151247
151177
151228
151206
151234
151280
151308
151262
151266
151267
151305
151276
151258
151238
151149
151133
151217
151258
151358
151324
151341
151365
151350
151257
151210
151209
151265
151253
151290
151186
151231
151289
151300
151299
151231
151229
151259
151215
151229
151227
151309
151342
151319
151238
151156
151123
151112
151186
151227
151272
151330
151337
151298
151248
151209
151198
151245
151226
151254
151250
151312
151339
151342
151322
151234
151209
151215
151277
151313
151256
151283
151316
151335
151314
151245
151241
151231
151210
151226
151230
151297
151274
151273
151224
151114
151192
151211
151231
151248
151217
151254
151322
151339
151304
151178
151198
151238
151242
151338
151372
151328
151300
151316
151302
151205
151217
151226
151168
151237
151235
151265
151202
151271
151338
151268
151298
151279
151257
151297
151245
151269
151300
151320
151335
151269
151273
151294
151244
151211
151235
151218
151187
151255
151336
151288
151319
151372
151348
151308
151307
151335
151289
151291
151221
151192
151309
151337
151266
151224
151220
151313
151355
151380
151393
151335
151367
151408
151413
151414
151426
151402
151366
151414
151362
151291
151325
151329
151314
151309
151313
151420
151495
151493
151459
151393
151397
151376
151317
151376
151335
151308
151349
151441
151467
151486
151513
151474
151382
151337
151393
151467
151484
151468
151479
151456
151494
151543
151493
151524
151525
151501
151520
151627
151579
151493
151452
151410
151408
151440
151485
151613
151659
151684
151689
151647
151624
151613
151608
151657
151771
151926
151949
151989
151905
151813
151790
151771
151753
151752
151640
151565
151491
151447
151377
151225
151155
151248
151211
151252
151311
151372
151345
151357
151475
151490
151501
151505
151447
151474
151460
151549
151598
151631
151617
151567
151624
151569
151513
151576
151646
151720
151739
151701
151644
151618
151624
151589
151547
151554
151569
151651
151699
151704
151654
151585
151578
151627
151645
151654
151609
151655
151630
151635
151737
151685
151657
151614
151591
151654
151710
151740
151728
151677
151726
151671
151624
151628
151629
151646
151659
151700
151691
151729
151661
151595
151555
151561
151539
151631
151613
151650
151683
151629
151695
151650
151676
151621
151542
151508
151497
151568
151575
151631
151589
151542
151556
151621
151581
151551
151597
151631
151601
151607
151561
151444
151448
151460
151448
151523
151557
151600
151569
151565
151514
151420
151448
151498
151521
151557
151501
151453
151402
151367
151356
151304
151370
151375
151349
151390
151421
151365
151312
151361
151366
151329
151284
151278
151275
151235
151167
151199
151176
151216
151220
151109
151093
151056
151010
151062
151018
151004
150987
150987
150929
150921
150941
150882
150857
150918
150937
150915
150930
150877
150827
150792
150831
150802
150717
150690
150737
150749
150776
150827
150769
150638
150595
150629
150630
150549
150477
150519
150594
150601
150563
150449
150403
150361
150342
150326
150398
150466
150393
150396
150361
150252
150182
150230
150239
150265
150299
150286
150245
150166
150127
150102
150117
150058
149991
149974
149923
149934
149905
149877
149915
149914
149855
149814
149810
149823
149803
149815
149753
149680
149635
149549
149637
149646
149598
149554
149465
149519
149575
149552
149514
149419
149373
149327
149246
149318
149278
149287
149280
149204
149183
149150
149157
149143
149074
149009
148962
148981
148945
148865
148833
148761
148775
148786
148863
148833
148737
148737
148670
148636
148668
148647
148599
148533
148454
148446
148422
148430
148425
148445
148391
148273
148210
148160
148168
148127
148098
148152
148130
148063
148067
147966
148007
147988
147967
147886
147883
147881
147833
147778
147784
147771
147717
147720
147634
147595
147548
147633
147649
147569
147568
147414
147395
147370
147324
147316
147303
147293
147276
147267
147237
147189
147179
147100
147064
147025
146966
147064
147086
147068
147000
146850
146795
146852
146845
146816
146829
146890
146775
146697
146756
146677
146627
146656
146610
146558
146511
146558
146558
146461
146441
146376
146344
146355
146319
146231
146195
146229
146205
146199
146219
146097
146000
145975
146017
145991
145955
146011
145973
145967
146012
145903
145844
145806
145747
145693
145654
145668
145597
145602
145619
145565
145551
145561
145493
145422
145421
145489
145480
145425
145367
145319
145298
145371
145326
145256
145159
145180
145192
145203
145282
145206
145115
145014
144960
144920
144894
144963
144933
144859
144846
144794
144852
144809
144785
144779
144706
144737
144799
144809
144718
144594
144565
144621
144605
144524
144525
144591
144600
144584
144575
144496
144425
144349
144379
144388
144289
144277
144276
144232
144221
144159
144204
144205
144183
144116
144103
144135
144106
144068
144077
143989
143945
143926
143950
143895
143899
143941
143945
143938
143903
143798
143789
143811
143850
143766
143656
143716
143715
143726
143725
143710
143636
143574
143547
143549
143595
143727
143746
143770
143738
143679
143673
143632
143636
143548
143474
143423
143409
143366
143343
143225
143103
143014
142988
142898
142810
142797
142761
142750
142825
142781
142758
142873
142883
142867
142771
142862
142915
142915
142957
142939
142907
142928
142872
142884
142893
142880
142864
142837
142840
142816
142857
142781
142706
142653
142644
142688
142812
142768
142714
142713
142638
142553
142510
142501
142464
142482
142537
142551
142523
142489
142491
142536
142532
142404
142395
142399
142386
142470
142528
142514
142487
142410
142389
142359
142431
142543
142543
142482
142373
142321
142292
142259
142272
142305
142322
142336
142371
142364
142325
142288
142303
142279
142251
142283
142303
142265
142266
142308
142322
142296
142277
142250
142283
142262
142220
142292
142261
142257
142268
142276
142229
142175
142213
142250
142295
142346
142323
142310
142381
142245
142144
142169
142090
142100
142109
142203
142245
142262
142279
142151
142144
142118
142105
142092
142080
142132
142188
142172
142139
142149
142126
142102
142129
142062
142010
142106
142179
142164
142068
142056
142026
141982
141948
141964
142021
142131
142234
142157
142090
142046
142008
141991
141988
141961
141924
142031
142008
141926
141934
141987
142067
142143
142097
142040
142007
142042
142029
142004
142022
141952
141879
141917
141956
141951
142029
142056
142092
142058
142010
141956
141973
141918
141866
141908
141926
142096
142147
142157
142153
142141
142116
142094
142029
141991
141961
142030
142068
142030
142025
142039
142058
142113
142073
142091
142038
142012
142039
142033
142040
142026
142081
142055
142061
142113
142078
142109
142203
142261
142221
142138
142089
142077
142158
142231
142251
142283
142254
142220
142253
142218
142234
142161
142155
142189
142156
142242
142265
142244
142225
142195
142225
142233
142235
142261
142176
142169
142224
142181
142198
142282
142268
142317
142355
142340
142282
142324
142374
142333
142354
142345
142354
142384
142385
142347
142328
142328
142368
142417
142404
142408
142472
142492
142463
142405
142340
142365
142453
142525
142559
142577
142541
142508
142534
142572
142426
142484
142563
142606
142590
142588
142588
142584
142584
142577
142544
142612
142658
142639
142661
142611
142740
142800
142768
142718
142630
142659
142715
142746
142766
142750
142702
142656
142671
142699
142863
142897
142836
142838
142821
142777
142803
142800
142874
142875
142769
142871
142858
142903
142955
142904
142844
142772
142747
142787
142821
142974
143122
143133
143107
143043
143039
142994
142996
143025
143031
143014
143064
143059
143132
143114
143031
143016
143094
143178
143181
143214
143207
143235
143182
143183
143208
143199
143215
143173
143192
143317
143350
143331
143297
143257
143300
143278
143276
143307
143269
143335
143385
143415
143425
143387
143407
143447
143492
143592
143488
143536
143565
143595
143628
143618
143665
143622
143609
143560
143585
143665
143676
143672
143701
143619
143628
143760
143841
143806
143653
143685
143752
143748
143741
143711
143751
143673
143607
143645
143707
143656
143742
143875
143923
143907
143896
143862
143786
143805
143824
143942
143987
143961
143945
143911
143905
143928
143936
144006
143957
143955
144092
144113
144032
144033
144081
144100
144158
144176
144133
144167
144220
144270
144251
144301
144358
144322
144280
144292
144190
144180
144189
144204
144227
144185
144134
144095
143975
143890
143839
143906
143941
144019
144021
143986
144028
144071
144068
144101
144136
144250
144346
144394
144390
144391
144443
144466
144481
144448
144425
144484
144571
144582
144602
144582
144556
144532
144529
144542
144534
144592
144687
144793
144760
144763
144771
144744
144707
144767
144679
144675
144803
144845
144831
144817
144881
144862
144800
144861
144857
144946
144977
144959
144992
144966
144992
144967
144950
144932
144928
144959
144976
145017
145065
144987
144939
144929
145000
145078
145100
145186
145217
145185
145174
145188
145168
145157
145133
145141
145091
145098
145118
145125
145194
145288
145441
145396
145361
145335
145245
145296
145341
145407
145372
145341
145366
145371
145423
145469
145468
145455
145510
145499
145565
145604
145606
145528
145475
145497
145543
145619
145606
145663
145610
145458
145487
145605
145670
145702
145689
145620
145583
145564
145553
145584
145632
145593
145545
145592
145567
145611
145663
145676
145613
145572
145607
145642
145669
145695
145636
145668
145681
145643
145653
145583
145584
145618
145712
145797
145752
145817
145824
145749
145685
145706
145735
145706
145744
145739
145732
145820
145854
145900
145922
145847
145875
145834
145853
145860
145828
145877
145889
145914
145910
145906
145952
145974
146012
146033
145949
145945
146018
146087
146087
146127
146177
146172
146125
146121
146082
146057
146079
146149
146220
146277
146334
146275
146170
146141
146096
146159
146233
146244
146291
146325
146316
146269
146274
146291
146273
146296
146352
146330
146273
146233
146284
146377
146397
146448
146443
146437
146473
146430
146427
146380
146366
146363
146446
146441
146416
146449
146536
146604
146634
146533
146555
146531
146477
146573
146652
146653
146642
146729
146680
146627
146640
146613
146621
146676
146631
146620
146765
146769
146742
146753
146829
146770
146758
146748
146770
146795
146837
146788
146780
146823
146913
146884
146919
146878
146833
146800
146853
146899
146942
146998
146992
146931
146893
146893
146890
146922
146970
147048
147065
147056
147046
147044
146980
146973
147014
147075
147126
147112
147103
147087
147106
147104
147041
147124
147151
147098
147140
147203
147200
147167
147208
147203
147158
147114
147085
147134
147174
147208
147202
147142
147160
147234
147282
147242
147189
147202
147219
147310
147401
147387
147371
147316
147243
147243
147248
147228
147327
147349
147393
147343
147406
147430
147355
147385
147338
147377
147392
147400
147443
147423
147432
147434
147469
147501
147396
147426
147471
147549
147580
147518
147576
147648
147669
147624
147520
147531
147578
147634
147614
147625
147697
147692
147696
147637
147636
147647
147694
147668
147672
147660
147812
147800
147741
147778
147844
147798
147759
147769
147707
147720
147735
147750
147726
147740
147782
147808
147826
147835
147794
147785
147891
147896
147916
147894
147838
147816
147893
147917
147904
147914
147983
147983
147972
147958
147948
147921
147949
148021
148074
148109
148106
148059
148018
148007
148004
148128
148147
148192
148185
148153
148186
148209
148234
148224
148171
148237
148381
148501
148463
148403
148425
148351
148278
148166
148119
148091
148086
148084
148013
147922
147892
147894
147867
147880
147911
147951
147951
147972
148008
148013
148117
148146
148146
148183
148147
148196
148254
148324
148366
148297
148333
148299
148254
148297
148299
148384
148421
148438
148384
148357
148372
148391
148375
148335
148271
148282
148317
148335
148480
148557
148587
148490
148390
148377
148346
148342
148348
148412
148566
148569
148472
148479
148512
148518
148508
148495
148550
148578
148595
148540
148570
148565
148596
148648
148582
148555
148507
148600
148670
148635
148582
148563
148621
148641
148649
148697
148688
148780
148828
148758
148797
148861
148806
148752
148734
148721
148680
148723
148789
148845
148933
148942
148923
148867
148792
148837
148881
148977
148986
148911
148921
149008
149013
148964
148950
149002
149031
149032
149041
149011
149006
149054
149003
148986
149034
149053
149121
149109
149136
149069
149056
149093
148998
148992
148940
148982
149070
149100
149175
149115
149077
149018
148902
148924
148972
149102
149098
149113
149133
149049
149089
149070
149065
149038
149004
149006
148961
148989
149048
148986
149015
149065
149057
149114
149128
149029
148946
148958
149001
149112
149195
149160
149050
148972
148932
148969
149107
149130
149164
149168
149200
149232
149205
149161
149122
149156
149153
149128
149186
149161
149162
149173
149145
149164
149193
149263
149259
149297
149330
149307
149361
149307
149262
149296
149275
149294
149202
149217
149345
149431
149459
149428
149358
149378
149362
149389
149367
149385
149334
149306
149341
149377
149385
149292
149307
149369
149343
149405
149483
149415
149424
149400
149410
149432
149362
149348
149341
149372
149470
149384
149445
149521
149518
149468
149393
149407
149426
149464
149504
149514
149460
149469
149473
149447
149484
149551
149533
149509
149525
149527
149513
149555
149544
149506
149580
149634
149626
149600
149616
149597
149623
149612
149558
149510
149464
149514
149557
149607
149616
149665
149744
149734
149659
149659
149612
149640
149634
149639
149606
149572
149648
149715
149688
149599
149567
149640
149709
149749
149797
149802
149769
149758
149705
149717
149658
149606
149636
149611
149710
149748
149726
149810
149839
149859
149791
149813
149815
149763
149761
149688
149691
149780
149800
149763
149657
149677
149744
149852
149916
149908
149926
149923
149840
149796
149716
149754
149724
149728
149861
149853
149895
149935
149911
149887
149837
149888
149881
149874
149902
149867
149835
149880
149857
149893
149814
149896
150013
150045
150037
149980
149994
149946
149907
149895
149887
149885
149982
150025
150046
149985
150007
150039
149999
149964
149942
150000
149941
149894
149945
149950
150004
150020
150072
150061
149992
150010
150079
150048
150096
150048
150078
150118
150080
150128
150065
150063
149974
149992
150101
150137
150192
150236
150188
150124
150069
150075
150047
150020
150062
150094
150128
150156
150102
150063
150039
150127
150190
150203
150234
150186
150198
150204
150181
150148
150092
150102
150198
150219
150248
150305
150279
150326
150246
150172
150178
150221
150247
150265
150315
150267
150279
150242
150225
150320
150243
150321
150307
150260
150278
150245
150353
150425
150450
150367
150211
150217
150183
150202
150229
150252
150188
150230
150285
150284
150240
150320
150338
150319
150241
150212
150258
150274
150290
150267
150318
150359
150330
150334
150389
150348
150364
150377
150394
150271
150224
150265
150260
150250
150329
150407
150374
150340
150355
150308
150275
150319
150264
150253
150401
150476
150534
150561
150610
150597
150544
150573
150517
150498
150512
150495
150481
150400
150378
150337
150229
150135
150027
149999
150066
150043
150138
150198
150197
150182
150131
150159
150140
150133
150221
150305
150325
150387
150440
150430
150418
150443
150461
150460
150512
150443
150390
150478
150563
150489
150397
150402
150491
150535
150582
150623
150604
150594
150574
150578
150502
150471
150460
150457
150511
150555
150572
150592
150606
150557
150490
150552
150602
150624
150706
150672
150644
150578
150590
150614
150657
150693
150659
150621
150636
150616
150598
150640
150667
150686
150629
150672
150669
150629
150581
150585
150678
150731
150823
150820
150709
150720
150734
150748
150760
150770
150762
150766
150798
150732
150722
150823
150762
150766
150803
150714
150747
150742
150802
150874
150881
150859
150856
150800
150808
150761
150816
150901
150868
150862
150873
150862
150852
150915
150919
150785
150827
150942
150977
151013
150897
150853
150837
150798
150812
150865
150870
150865
150849
150812
150782
150828
150825
150825
150791
150721
150739
150726
150693
150686
150658
150708
150719
150694
150697
150733
150803
150799
150830
150748
150644
150679
150625
150560
150699
150707
150742
150667
150678
150640
150609
150622
150636
150673
150680
150647
150651
150621
150638
150646
150637
150620
150600
150616
150634
150696
150757
150783
150750
150677
150585
150590
150576
150612
150675
150709
150794
150804
150782
150739
150687
150675
150710
150700
150755
150731
150791
150818
150807
150812
150809
150887
150934
150898
150849
150806
150838
150863
150895
150866
150790
150789
150827
150798
150920
150930
150903
150917
150915
150893
150874
150911
150949
150894
150879
150920
150979
151044
151134
151140
151033
151026
150994
150986
151006
150989
151037
151048
151081
151085
150995
151013
151043
151010
151091
151132
151112
151158
151122
151042
151025
151048
151026
151114
151134
151114
151184
151199
151215
151194
151077
151084
151096
151158
151195
151178
151117
151069
151141
151179
151163
151167
151202
151162
151124
151125
151229
151322
151330
151306
151250
151195
151127
151138
151190
151226
151245
151330
151413
151409
151268
151277
151308
151248
151261
151220
151173
151228
151253
151259
151240
151389
151408
151313
151332
151296
151299
151331
151301
151254
151216
151329
151432
151405
151349
151356
151371
151340
151368
151474
151432
151483
151505
151463
151438
151349
151312
151332
151406
151421
151381
151428
151397
151351
151421
151431
151494
151563
151524
151428
151374
151423
151443
151479
151429
151432
151524
151540
151545
151547
151536
151543
151490
151461
151482
151471
151547
151633
151590
151524
151458
151463
151512
151610
151660
151636
151653
151621
151619
151610
151549
151522
151496
151475
151435
151419
151594
151665
151734
151731
151586
151562
151596
151573
151614
151645
151661
151654
151622
151570
151525
151586
151682
151684
151736
151745
151766
151785
151760
151757
151731
151748
151767
151630
151540
151582
151613
151606
151608
151698
151807
151864
151775
151707
151727
151784
151788
151768
151735
151731
151712
151739
151783
151679
151790
151755
151812
151789
151825
151833
151793
151799
151799
151810
151757
151798
151854
151804
151818
151838
151759
151718
151747
151771
151789
151789
151769
151793
151816
151797
151722
151767
151781
151823
151838
151866
151912
151901
151841
151767
151718
151737
151715
151686
151667
151724
151817
151859
151864
151853
151848
151812
151754
151744
151711
151726
151755
151734
151830
151827
151808
151842
151875
151919
151905
151928
151954
151949
152003
152080
151958
151945
151986
151975
151918
151890
151932
151948
151992
151985
151852
151743
151638
151522
151502
151506
151531
151521
151470
151489
151482
151505
151553
151582
151627
151718
151837
151820
151832
151777
151722
151741
151812
151887
151892
151881
151897
151872
151910
151934
151889
151918
151840
151788
151881
151927
151978
152034
152006
151970
151929
151861
151817
151864
151888
151903
151956
151968
151976
152029
151912
151885
151870
151858
151832
151878
151921
151945
151967
151984
151950
151934
151872
151848
151929
152011
152076
152082
152088
152117
151968
151922
151902
151897
151864
151872
151918
152021
152083
152075
151959
151896
151881
151964
152009
152019
152091
152030
152017
151991
152035
152036
151958
151915
151978
152011
152109
152106
152077
152146
152123
152063
152085
152107
152102
152074
152119
152156
152128
152195
152161
152140
152101
152105
152089
152110
152157
152200
152233
152139
152039
152105
152134
152177
152198
152151
152212
152218
152122
152167
152182
152122
152119
152054
151999
152003
152070
152109
152125
152181
152071
152114
152093
152084
152053
152060
152122
152093
152056
152064
152046
152011
152009
152024
152034
152013
151992
152022
152089
152143
152138
152142
152116
152056
151986
152004
152119
152142
152133
152183
152110
152088
152035
152072
152019
152008
152110
152120
152091
152084
152057
151978
152005
152132
152200
152109
152159
152214
152249
152282
152179
152172
152106
152087
152086
152117
152237
152349
152312
152383
152307
152246
152268
152254
152188
152158
152261
152249
152213
152251
152205
152173
152177
152192
152195
152233
152299
152321
152296
152250
152118
152126
152178
152226
152326
152323
152324
152331
152309
152260
152224
152251
152341
152345
152308
152281
152340
152333
152367
152320
152222
152215
152214
152178
152205
152226
152319
152308
152336
152317
152266
152254
152200
152175
152174
152163
152375
152382
152335
152385
152349
152349
152303
152311
152293
152313
152365
152338
152328
152393
152320
152365
152390
152349
152333
152323
152374
152330
152327
152394
152319
152297
152233
152218
152234
152288
152392
152491
152492
152443
152378
152351
152344
152308
152291
152283
152368
152373
152334
152320
152313
152294
152323
152415
152426
152396
152386
152365
152471
152459
152391
152373
152372
152330
152334
152329
152337
152394
152416
152401
152349
152370
152351
152387
152378
152307
152360
152385
152376
152406
152309
152315
152294
152276
152351
152421
152495
152495
152430
152375
152270
152250
152290
152329
152320
152303
152363
152458
152461
152463
152460
152492
152465
152422
152326
152280
152378
152455
152506
152540
152453
152473
152486
152437
152378
152356
152416
152445
152418
152358
152302
152352
152398
152390
152365
152321
152400
152470
152400
152428
152415
152351
152394
152405
152388
152425
152469
152418
152445
152529
152544
152550
152537
152485
152437
152419
152499
152473
152473
152483
152500
152535
152522
152511
152474
152425
152504
152565
152555
152567
152552
152573
152609
152586
152548
152561
152607
152615
152581
152523
152473
152497
152561
152544
152489
152484
152572
152554
152579
152613
152606
152603
152566
152573
152543
152511
152577
152611
152667
152628
152539
152545
152550
152502
152506
152469
152526
152563
152588
152599
152558
152555
152521
152605
152597
152577
152638
152610
152582
152639
152641
152633
152568
152577
152619
152647
152781
152817
152865
152899
152865
152853
152819
152808
152760
152688
152676
152697
152750
152673
152524
152363
152252
152218
152295
152267
152336
152374
152379
152399
152384
152419
152430
152485
152482
152486
152614
152666
152709
152648
152619
152646
152616
152595
152635
152637
152715
152771
152730
152696
152683
152653
152641
152638
152678
152715
152803
152870
152868
152844
152790
152751
152688
152697
152709
152616
152707
152829
152894
152839
152747
152672
152695
152791
152832
152746
152810
152827
152780
152783
152785
152773
152793
152783
152802
152781
152842
152871
152862
152881
152870
152853
152831
152886
152859
152788
152857
152890
152909
152967
152902
152840
152812
152814
152791
152830
152951
152955
153001
152964
152896
152877
152876
152852
152881
152845
152931
153029
153020
152965
152943
152929
152947
152950
152898
152867
152959
153037
153054
153010
152971
152958
152956
152954
152984
152932
152969
153004
153053
153083
153042
153075
153098
153062
153036
152992
153025
153011
152976
152987
153032
153013
152976
153033
153081
152975
152988
152993
152978
152984
152974
152916
152882
152866
152935
152898
152941
153018
153082
153091
152986
152971
152898
152904
152906
152899
152911
152884
152935
152946
152925
152988
152971
152937
152950
152894
152918
152921
152906
152927
152928
152996
153033
152918
152865
152895
152974
153017
153054
153037
153000
153047
153015
152963
152941
152913
152955
153028
153065
153148
153107
153047
153047
153009
153067
153045
153033
153084
153031
153047
153052
153090
153128
153139
153152
153085
153158
153178
153141
153139
153072
153068
153134
153141
153185
153122
153178
153224
153205
153199
153163
153130
153121
153066
153088
153085
153211
153189
153149
153120
153201
153222
153160
153156
153146
153092
153165
153227
153219
153235
153226
153255
153242
153191
153154
153148
153152
153201
153200
153249
153206
153198
153168
153111
153084
153068
153088
153114
153156
153151
153128
153188
153293
153367
153293
153167
153239
153288
153312
153221
153160
153185
153222
153163
153169
153174
153220
153261
153250
153294
153232
153175
153136
153154
153171
153117
153241
153259
153220
153247
153235
153261
153196
153183
153161
153105
153144
153215
153230
153188
153170
153236
153204
153226
153225
153222
153232
153262
153244
153195
153186
153211
153196
153264
153312
153294
153302
153314
153278
153270
153227
153246
153229
153202
153237
153186
153146
153208
153278
153301
153240
153291
153284
153258
153263
153198
153243
153278
153300
153296
153203
153226
153218
153227
153289
153266
153238
153366
153420
153396
153364
153301
153254
153215
153212
153282
153309
153274
153285
153273
153263
153308
153324
153346
153317
153276
153280
153269
153281
153307
153414
153458
153354
153290
153272
153195
153156
153176
153270
153325
153321
153296
153201
153234
153350
153362
153367
153343
153404
153359
153294
153350
153324
153306
153300
153252
153290
153336
153424
153416
153342
153421
153392
153314
153298
153310
153370
153435
153428
153415
153335
153408
153416
153455
153403
153347
153438
153464
153455
153414
153358
153389
153430
153446
153466
153425
153435
153472
153476
153493
153478
153495
153459
153451
153522
153419
153404
153494
153489
153453
153513
153590
153529
153508
153449
153386
153412
153398
153385
153377
153353
153438
153512
153561
153449
153443
153391
153358
153421
153461
153410
153394
153420
153437
153416
153387
153416
153441
153443
153460
153442
153479
153443
153437
153368
153311
153334
153360
153493
153516
153485
153515
153472
153394
153422
153375
153375
153433
153474
153520
153541
153603
153638
153635
153650
153587
153596
153688
153700
153647
153564
153561
153467
153381
153356
153334
153247
153198
153208
153194
153062
153063
153129
153218
153177
153079
153148
153248
153263
153277
153237
153273
153347
153375
153467
153451
153483
153476
153462
153467
153445
153433
153409
153459
153404
153412
153431
153500
153507
153501
153447
153493
153457
153464
153488
153486
153457
153471
153491
153417
153441
153562
153520
153457
153430
153368
153403
153476
153448
153472
153468
153540
153517
153445
153436
153474
153538
153576
153601
153564
153463
153494
153465
153496
153564
153511
153455
153472
153499
153513
153499
153559
153544
153505
153450
153401
153556
153602
153619
153636
153593
153610
153527
153451
153473
153390
153408
153544
153578
153618
153565
153606
153585
153547
153516
153473
153535
153556
153540
153554
153580
153593
153623
153659
153603
153566
153590
153571
153609
153594
153548
153606
153570
153534
153581
153563
153538
153626
153684
153593
153601
153619
153597
153557
153553
153503
153455
153467
153467
153504
153494
153491
153460
153452
153420
153366
153359
153441
153414
153378
153349
153439
153400
153383
153428
153368
153319
153311
153331
153388
153401
153480
153478
153421
153384
153341
153361
153347
153370
153369
153364
153419
153413
153374
153280
153267
153272
153255
153344
153443
153463
153382
153369
153309
153232
153153
153184
153275
153378
153372
153364
153323
153329
153323
153346
153341
153280
153260
153336
153367
153300
153455
153509
153409
153332
153328
153320
153375
153360
153293
153235
153270
153355
153323
153310
153348
153293
153250
153255
153350
153350
153384
153445
153327
153263
153227
153218
153205
153226
153293
153311
153392
153338
153225
153212
153188
153294
153306
153298
153304
153218
153238
153246
153231
153257
153183
153242
153286
153323
153359
153320
153334
153339
153279
153207
153135
153130
153154
153181
153158
153184
153228
153220
153167
153115
153139
153350
153346
153247
153184
153228
153235
153239
153248
153201
153161
153172
153120
153100
153132
153085
153113
153218
153238
153227
153146
153135
153148
153179
153191
153149
153158
153142
153135
153085
153151
153134
153127
153160
153126
153103
153117
153137
153082
153037
152938
152970
153047
153070
153109
153178
153212
153119
153099
153081
152999
153054
153050
153080
153123
153047
153066
153082
153041
153060
153044
153066
153144
153105
153057
153030
153024
153008
152980
152994
152927
152899
152946
153023
153037
153003
153051
153073
153042
152972
152897
152881
152854
152940
153024
152954
152941
152965
152952
152979
152903
152957
152928
152931
152925
152881
152949
153005
152970
152872
152812
152840
152851
152904
152940
152862
152862
152864
152831
152831
152817
152823
152806
152885
152903
152875
152885
152869
152801
152767
152781
152872
152806
152846
152842
152758
152786
152810
152796
152854
152761
152718
152755
152738
152777
152833
152858
152897
152859
152859
152854
152841
152773
152793
152783
152738
152782
152786
152836
152839
152717
152718
152700
152736
152746
152748
152752
152772
152704
152691
152668
152676
152619
152664
152693
152736
152907
152907
152783
152753
152656
152597
152615
152704
152736
152707
152720
152741
152729
152684
152590
152625
152634
152620
152619
152613
152647
152655
152610
152576
152634
152632
152609
152585
152590
152522
152551
152537
152506
152523
152496
152451
152501
152595
152609
152603
152615
152580
152565
152484
152433
152527
152490
152509
152577
152555
152530
152566
152567
152586
152622
152568
152589
152620
152567
152591
152791
152864
152790
152711
152601
152615
152607
152626
152570
152535
152577
152499
152402
152323
152201
152131
152117
152143
152142
152142
152167
152132
152173
152263
152293
152264
152190
152295
152447
152487
152532
152580
152541
152460
152441
152487
152466
152466
152490
152472
152443
152458
152410
152425
152463
152569
152561
152550
152567
152576
152597
152545
152474
152422
152382
152419
152424
152472
152594
152595
152595
152606
152557
152528
152468
152553
152508
152519
152606
152589
152581
152587
152582
152575
152526
152519
152548
152552
152564
152536
152553
152594
152650
152600
152514
152553
152516
152532
152563
152524
152567
152545
152547
152528
152525
152568
152630
152626
152608
152546
152504
152502
152507
152650
152660
152598
152617
152608
152700
152670
152630
152621
152675
152687
152589
152618
152649
152678
152722
152731
152770
152752
152742
152694
152638
152697
152688
152690
152778
152764
152769
152776
152757
152665
152618
152699
152708
152698
152699
152688
152717
152742
152716
152722
152628
152573
152581
152604
152670
152598
152661
152667
152581
152608
152508
152561
152563
152568
152566
152554
152579
152585
152612
152561
152476
152493
152534
152609
152620
152559
152530
152500
152531
152541
152490
152542
152545
152541
152619
152562
152480
152477
152458
152477
152525
152582
152534
152514
152568
152553
152499
152537
152550
152562
152532
152601
152543
152475
152534
152528
152583
152645
152628
152604
152522
152539
152510
152504
152523
152511
152595
152694
152607
152528
152462
152542
152556
152590
152628
152572
152540
152548
152547
152514
152453
152513
152527
152536
152538
152569
152585
152630
152671
152594
152519
152494
152433
152382
152469
152612
152630
152600
152608
152513
152457
152470
152398
152468
152619
152590
152657
152692
152693
152564
152491
152507
152482
152509
152557
152561
152688
152720
152645
152612
152606
152670
152602
152602
152658
152695
152786
152754
152717
152699
152713
152766
152842
152848
152839
152816
152841
152846
152879
152907
152850
152832
152793
152789
152864
153016
153071
153143
153083
153018
152925
152956
153004
153040
153011
152930
152909
152947
153000
152970
152952
152956
152971
152931
152921
152932
153008
152890
152853
152883
152908
152941
152870
152852
152870
152852
152839
152779
152827
152802
152847
152884
152801
152742
152715
152794
152851
152883
152831
152773
152694
152760
152730
152767
152804
152804
152837
152833
152787
152783
152715
152680
152627
152585
152647
152764
152819
152827
152809
152773
152754
152786
152737
152720
152742
152746
152789
152795
152845
152822
152679
152705
152732
152713
152700
152691
152746
152762
152813
152797
152740
152726
152730
152738
152719
152689
152641
152603
152580
152572
152699
152801
152689
152651
152679
152659
152721
152761
152718
152611
152550
152584
152609
152611
152561
152503
152547
152576
152672
152671
152577
152607
152527
152477
152523
152574
152599
152550
152607
152608
152550
152587
152590
152573
152597
152630
152616
152561
152631
152637
152487
152576
152612
152599
152559
152544
152577
152651
152687
152613
152539
152617
152661
152580
152616
152646
152673
152700
152712
152657
152552
152570
152563
152575
152594
152532
152573
152584
152593
152551
152534
152618
152656
152619
152532
152523
152609
152608
152571
152532
152433
152443
152524
152545
152582

[HeartVoice API 返回]
# HeartVoice 专业 API 返回的聚合指标（不返回原始波形分析数据）
# 与下方 [算法提取后的结构化特征] 对照可定位本地算法差异
平均心率:61
最低心率:0
最高心率:0
诊断:SN
QRS宽度:100
P波宽度:96
PR间期:153
QT间期:360
QTc:362
房性早搏:0
室性早搏:0
信号质量:0.9
导联反接:true
是否异常:false

[算法提取后的结构化特征]
# 由 EcgFeatureExtractor.extract() + toPromptText() 在手机端重建
# 与手表端发给 DeepSeek 的提示词文本一致（DS 实际收到的数据）
# 注意: 用户 profile（年龄性别）未存入测量记录，手机端重建时为'未知'
#       助手如需年龄性别做医学判断，需用户单独提供

[用户属性]

[全局指标]
采样率:500Hz 时长:30.9s 总点数:15430
R波检测:39个 平均心率:71bpm 范围:63-89bpm
R波位置(样本索引):79,336,672,850,1420,1712,2029,2218,2914,3511,3840,4477,4744,4935,5233,5782,6172,6592,6756,7150,7641,7874,8132,8616,9039,9595,10042,10499,11082,11718,11988,12473,12993,13498,13973,14468,14672,14977,15198
RR间期序列(ms，[*]为偏离均值>20%的异常间期，多为早搏/误检):[514*] 672 [356*] [1140*] [584*] [634*] [378*] [1392*] [1194*] 658 [1274*] [534*] [382*] [596*] [1098*] 780 840 [328*] 788 [982*] [466*] [516*] [968*] 846 [1112*] 894 914 [1166*] [1272*] [540*] [970*] [1040*] [1010*] 950 [990*] [408*] [610*] [442*]
RR差值序列(ms):158,-316,784,-556,50,-256,1014,-198,-536,616,-740,-152,214,502,-318,60,-512,460,194,-516,50,452,-122,266,-218,20,252,106,-732,430,70,-30,-60,40,-582,202,-168
SDNN:96.0ms RMSSD:59.9ms pNN50:50.0%
QRS宽度(本地估测,ms):50±13
PR间期(本地估测,ms):157±63
QT间期(本地估测,ms):433 QTc(Bazett):471ms QTc(Fridericia):457ms
R波平均振幅:0.28mV
R波极性:负向(负向提示导联反接/位置异常)
T/R振幅比:1.60(正常0.1-0.5，<0.1低平，>0.5高尖)
ST段偏移(本地估测,mV):-0.034(正常±0.05，>0.1抬高，<-0.1压低)
信号质量:1.00 良好

[节律判别特征]
R波可靠性:可信
RR变异系数:0.118(轻度不齐)
Poincaré散点形态:彗星形(规律)
短-长RR配对数(早搏代偿):5个

[逐秒分段]
时段(s)  R波  振幅范围(mV)  峰峰值(mV)  最大斜率(mV/s)  RMS(mV)
0.0-1.0  2  -0.70~0.91  1.61  96.00  0.46
1.0-2.0  2  -0.52~0.40  0.91  77.50  0.18
2.0-3.0  1  -0.69~0.62  1.31  68.00  0.27
3.0-4.0  1  -0.79~0.41  1.21  80.50  0.24
4.0-5.0  2  -0.60~0.72  1.32  80.50  0.19
5.0-6.0  1  -0.65~0.73  1.38  75.50  0.41
6.0-7.0  0  -2.24~2.43  4.67  78.00  1.48  ← 本秒无R波(心率<60或代偿间隙)
7.0-8.0  2  -0.47~0.45  0.92  100.50  0.17
8.0-9.0  1  -0.56~1.20  1.76  94.50  0.45
9.0-10.0  2  -2.21~1.75  3.96  77.50  1.22
10.0-11.0  1  -0.53~0.49  1.03  94.50  0.16
11.0-12.0  1  -0.60~0.46  1.07  81.50  0.27
12.0-13.0  1  -0.63~0.45  1.08  94.00  0.27
13.0-14.0  2  -0.90~0.82  1.73  96.50  0.57
14.0-15.0  1  -0.62~0.34  0.96  87.00  0.20
15.0-16.0  2  -0.50~0.33  0.83  72.00  0.16
16.0-17.0  1  -0.45~0.60  1.05  97.50  0.28
17.0-18.0  1  -0.70~0.53  1.23  79.00  0.28
18.0-19.0  1  -0.55~0.52  1.07  83.50  0.30
19.0-20.0  1  -0.41~0.38  0.79  89.50  0.13
20.0-21.0  2  -0.65~0.50  1.14  88.50  0.24  ← 短RR+代偿间隙(早搏可能)
21.0-22.0  0  -0.62~0.93  1.54  87.50  0.47  ← 代偿间隙(配合前秒短RR)
22.0-23.0  1  -4.95~2.26  7.21  77.50  2.19
23.0-24.0  2  -0.94~2.00  2.94  85.00  0.72
24.0-25.0  1  -2.42~2.25  4.68  76.50  1.28
25.0-26.0  1  -1.38~1.08  2.46  78.00  0.62
26.0-27.0  1  -1.03~0.92  1.95  87.50  0.47
27.0-28.0  1  -0.79~0.63  1.42  106.00  0.25
28.0-29.0  1  -0.56~0.53  1.08  66.50  0.22
29.0-30.0  2  -0.97~0.59  1.57  105.50  0.37
逐秒RMS:0.458,0.185,0.273,0.241,0.191,0.406,1.481,0.167,0.446,1.218,0.155,0.267,0.270,0.570,0.198,0.156,0.279,0.279,0.296,0.132,0.245,0.469,2.192,0.722,1.283,0.617,0.469,0.247,0.222,0.371

[AI 解读]
# DeepSeek 返回的原始 JSON（未清洗，可能含 markdown 代码块包裹）
本次测量未使用 AI 分析（分析方法非 ds_*）
