========== ECG 算法诊断包 ==========
测量时间: 2026-07-17 11:32:23
测量时间戳:1784259143577
采样率:500 Hz
数据点数:15320
时长:30.6 秒
分析方法:ds_pro_max
Tavily状态:已检索医学文献并注入提示词（房颤检测方法学/HRV参考值/QTc临床意义）

[原始 ECG 数据]
# 单位: mV×1000 整数（如 500 = 0.5mV，-1000 = -1.0mV）
# 采样率: 500 Hz，连续采样，无降采样无压缩
# 用途: 助手据此复现本地算法行为（基线漂移/噪声段/R波检测）
# 格式: 每行一个数值，行号=采样点索引（第1行=索引0，即 t=0.000s）
129670
129736
129759
129746
129693
129606
129579
129559
129623
129745
129647
129627
129665
129679
129696
129661
129622
129556
129599
129597
129599
129673
129693
129666
129586
129531
129536
129561
129641
129647
129548
129575
129622
129650
129635
129592
129584
129552
129514
129512
129396
129400
129491
129527
129520
129522
129541
129561
129524
129533
129455
129471
129517
129496
129469
129450
129441
129446
129385
129405
129400
129398
129408
129388
129404
129447
129424
129373
129382
129357
129278
129411
129533
129470
129381
129325
129331
129314
129271
129265
129182
129291
129392
129477
129500
129468
129478
129461
129433
129374
129378
129496
129578
129578
129574
129541
129457
129365
129315
129253
129140
129093
129044
128981
128907
128875
128826
128801
128809
128840
128793
128855
128910
128911
128977
128974
128954
128915
128961
129152
129198
129253
129206
129210
129204
129268
129300
129189
129164
129176
129154
129191
129231
129221
129206
129168
129185
129141
129069
129084
129062
129106
129192
129191
129216
129226
129189
129104
129071
129132
129069
129118
129106
129114
129121
129122
129140
129194
129215
129202
129145
129105
129154
129157
129156
129192
129202
129187
129130
129089
129067
129047
129090
129178
129243
129123
129061
129019
129019
129093
129157
129174
129144
129135
129116
129129
129115
129005
129044
129112
129092
129139
129187
129210
129071
128985
129008
129015
129194
129289
129264
129223
129204
129201
129177
129162
129170
129059
129034
129034
129001
129071
129131
129221
129205
129183
129136
129080
129027
128953
128930
128933
128998
128956
128882
128942
129057
128901
128946
128987
128857
128850
128947
128941
128864
128879
128905
128881
128808
128797
128803
128781
128829
128787
128768
128782
128768
128698
128680
128739
128692
128729
128744
128791
128824
128714
128691
128601
128571
128539
128525
128605
128747
128735
128682
128654
128692
128680
128639
128693
128601
128562
128576
128703
128826
128866
128858
128792
128795
128749
128659
128616
128641
128853
128755
128737
128814
128824
128830
128821
128769
128766
128848
128874
128864
128822
128838
128737
128735
128742
128711
128748
128764
128793
128794
128741
128805
128723
128747
128759
128746
128724
128713
128678
128732
128847
128873
128921
128899
128868
128772
128742
128762
128780
128781
128821
128870
128872
128878
128820
128777
128848
128896
128925
128923
128925
128940
128848
128792
128763
128744
128728
128828
128820
128836
128786
128820
128759
128694
128643
128501
128479
128420
128395
128451
128491
128542
128331
128280
128182
128186
128071
128020
127996
127930
127962
127929
127837
127727
127677
127573
127560
127573
127587
127560
127481
127428
127282
127189
127220
127201
127217
127279
127236
127325
127250
127210
127116
127032
127074
127053
127074
127130
127155
127178
127101
127073
127054
127011
127030
127015
126963
126990
127001
127037
127085
127122
127148
127137
127101
127026
126999
127103
127131
127165
127112
127140
127141
127086
127077
127028
127034
127064
127086
127147
127147
127155
127132
127099
127043
127006
127034
127113
127125
127120
127044
127078
127112
127145
127132
127062
127040
127090
127062
127001
126996
127006
126980
126977
127022
126955
126946
127018
127090
127059
126991
127033
126982
126888
126837
126912
126928
127003
127045
127053
126985
126938
126902
126960
126979
126921
126946
127016
126999
127045
127000
126994
126972
126876
126848
126776
126813
126946
126986
127042
127008
127013
126973
126903
126869
126786
126773
126899
126997
127015
126884
126930
126952
126918
126914
126939
126919
126982
127033
127012
126986
127063
127013
126966
126920
126875
126969
127043
127053
127060
126992
127032
127045
126996
126990
126994
127011
127036
127064
127063
127064
127130
127166
127139
127149
127063
127025
127075
127135
127139
127153
127184
127213
127202
127140
127182
127270
127327
127393
127439
127508
127440
127402
127415
127482
127485
127490
127459
127588
127677
127599
127662
127625
127522
127427
127322
127235
127213
127176
127195
127202
127265
127149
127149
127237
127283
127272
127308
127359
127412
127402
127453
127504
127487
127440
127535
127577
127655
127762
127757
127639
127695
127670
127684
127651
127606
127647
127676
127659
127651
127634
127723
127779
127773
127725
127738
127712
127691
127705
127778
127808
127947
127987
127920
127857
127812
127864
127921
127951
128017
127995
128009
127982
127952
128039
127983
127950
127987
128161
128230
128276
128367
128315
128232
128147
128130
128165
128275
128357
128394
128326
128402
128466
128449
128443
128390
128399
128437
128534
128561
128649
128694
128636
128629
128659
128677
128696
128674
128716
128748
128733
128762
128775
128724
128745
128818
128949
128948
128951
128933
128930
129045
129053
129011
128979
128930
128948
129006
129040
129073
129079
129159
129157
129025
129011
129014
128966
129056
129110
129132
129091
129125
129131
129092
129135
129127
129067
129011
129089
129118
129100
129091
129040
129001
128979
129001
129148
129210
129181
129210
129222
129254
129196
129136
129148
129100
129072
129044
129158
129308
129339
129322
129374
129286
129302
129272
129306
129312
129419
129393
129352
129421
129437
129419
129475
129513
129549
129522
129532
129597
129629
129767
129738
129666
129620
129639
129778
129763
129765
129849
129796
129849
129853
129880
129901
129899
129936
129942
129963
129946
130037
130074
130081
130054
130042
130037
130061
130090
130139
130121
130077
130149
130200
130165
130086
130076
130085
130087
130124
130180
130217
130249
130221
130234
130217
130143
130152
130115
130206
130312
130319
130299
130293
130256
130257
130189
130159
130140
130269
130407
130515
130557
130474
130409
130385
130339
130370
130363
130406
130497
130468
130514
130450
130416
130477
130466
130432
130409
130481
130650
130630
130662
130681
130625
130572
130555
130636
130636
130731
130773
130725
130758
130814
130749
130717
130732
130733
130770
130789
130834
130866
130922
130928
130898
130897
130920
130941
130894
131010
131114
131151
131178
131158
131052
130976
130916
131034
131194
131330
131349
131282
131224
131173
131175
131147
131146
131238
131259
131312
131331
131291
131376
131417
131367
131279
131256
131280
131307
131380
131484
131588
131625
131575
131486
131481
131417
131462
131493
131540
131597
131566
131569
131556
131541
131474
131413
131476
131578
131604
131637
131572
131585
131670
131656
131599
131563
131588
131594
131647
131746
131769
131793
131809
131733
131629
131551
131589
131716
131782
131831
131865
131823
131833
131761
131722
131707
131715
131739
131829
131780
131796
131885
131986
132023
131945
131910
131925
131829
131888
132003
132003
132029
132036
132016
131947
132001
131997
131938
132107
132125
132088
132117
132124
132145
132165
132124
132110
132043
132071
132071
132017
132125
132164
132193
132312
132291
132271
132213
132245
132247
132222
132246
132275
132217
132123
132190
132301
132235
132324
132491
132421
132380
132482
132407
132393
132329
132340
132311
132369
132397
132368
132480
132553
132655
132664
132643
132643
132600
132563
132596
132647
132782
132823
132704
132518
132424
132438
132382
132295
132254
132185
132222
132340
132338
132271
132221
132302
132297
132350
132439
132449
132534
132692
132713
132594
132537
132625
132637
132722
132725
132721
132872
132912
132832
132765
132653
132611
132634
132806
133012
133029
133060
133025
132940
132889
132855
132883
132843
132894
132932
132992
133003
133027
132986
133024
133003
133033
132991
133004
133063
133087
133084
133100
133036
133008
132995
133032
132980
132984
133136
133193
133205
133243
133234
133224
133175
133194
133092
133090
133116
133158
133224
133254
133297
133269
133275
133299
133292
133300
133329
133319
133254
133239
133223
133222
133309
133415
133396
133387
133405
133364
133319
133359
133368
133345
133411
133458
133413
133482
133522
133528
133518
133494
133455
133481
133457
133484
133467
133448
133556
133643
133685
133716
133675
133588
133506
133577
133545
133579
133587
133595
133633
133828
133764
133632
133629
133680
133555
133597
133683
133740
133768
133736
133657
133558
133513
133593
133575
133603
133670
133659
133654
133668
133712
133713
133669
133669
133611
133661
133800
133763
133681
133779
133847
133772
133669
133694
133701
133699
133709
133732
133759
133771
133778
133796
133879
133987
133941
133927
133945
133919
133925
133987
134043
133949
133947
134033
134147
134113
134102
134156
134191
134180
134211
134243
134249
134229
134229
134246
134310
134251
134299
134347
134347
134291
134217
134229
134271
134337
134389
134424
134459
134431
134386
134312
134274
134452
134474
134492
134511
134556
134563
134545
134587
134609
134486
134481
134538
134585
134631
134610
134623
134683
134707
134720
134631
134697
134764
134804
134824
134837
134862
134875
134893
134816
134805
134832
134804
134825
134869
134864
134897
134962
134937
134912
134815
134921
134877
134909
134952
135005
135017
135042
135050
134976
134931
135007
134974
134992
134970
134949
135010
135144
135244
135198
135092
135134
135138
135190
135229
135191
135261
135277
135243
135206
135216
135209
135165
135140
135202
135275
135328
135381
135379
135324
135247
135263
135254
135188
135211
135280
135294
135302
135355
135354
135356
135366
135347
135250
135387
135428
135428
135451
135408
135381
135368
135440
135451
135525
135580
135575
135576
135551
135520
135446
135407
135451
135438
135404
135401
135399
135377
135383
135518
135519
135455
135510
135445
135461
135518
135532
135498
135424
135421
135401
135388
135417
135432
135432
135476
135490
135485
135482
135498
135454
135351
135306
135270
135277
135316
135425
135584
135553
135505
135405
135361
135376
135281
135269
135334
135246
135282
135360
135410
135364
135313
135413
135351
135329
135374
135363
135358
135372
135385
135384
135303
135240
135216
135226
135276
135302
135338
135345
135329
135220
135226
135236
135254
135244
135239
135253
135342
135416
135344
135310
135265
135211
135199
135194
135234
135374
135503
135580
135596
135512
135364
135350
135412
135314
135323
135342
135420
135477
135557
135570
135526
135475
135512
135479
135465
135492
135584
135610
135648
135670
135637
135667
135635
135625
135678
135770
135832
135902
135928
135899
135803
135762
135773
135711
135678
135664
135674
135673
135613
135492
135402
135393
135374
135299
135355
135405
135489
135478
135555
135573
135493
135581
135670
135677
135745
135770
135775
135808
135980
136030
135939
135981
136004
136028
136007
135960
136050
136014
136025
135924
135850
135961
136017
136019
136038
136034
136109
136104
136210
136179
136089
136110
136102
136113
136139
136153
136173
136211
136227
136169
136081
136152
136211
136177
136194
136299
136418
136365
136400
136372
136288
136309
136287
136275
136256
136266
136346
136421
136482
136450
136432
136417
136407
136427
136439
136497
136587
136592
136516
136458
136402
136437
136416
136377
136417
136452
136486
136502
136495
136505
136482
136502
136649
136727
136625
136583
136617
136611
136665
136622
136579
136576
136543
136565
136666
136728
136821
136804
136752
136721
136648
136627
136661
136632
136694
136710
136743
136767
136805
136730
136672
136690
136642
136595
136669
136681
136722
136755
136769
136781
136718
136688
136678
136665
136645
136659
136682
136658
136678
136683
136714
136766
136785
136747
136731
136773
136785
136739
136754
136752
136658
136651
136689
136694
136737
136751
136757
136740
136806
136933
136830
136871
136889
136874
136924
136939
136967
136978
136960
136919
136802
136795
136822
136938
137049
137100
137109
137064
137083
137100
137045
137025
137033
137000
137058
137098
137076
137080
137064
137038
137066
137106
137164
137145
137196
137154
137130
137154
137244
137230
137214
137269
137263
137252
137256
137237
137269
137255
137259
137238
137357
137416
137374
137362
137352
137384
137385
137404
137497
137499
137375
137465
137448
137419
137477
137470
137530
137503
137503
137529
137471
137445
137506
137508
137484
137509
137550
137570
137581
137565
137497
137503
137486
137480
137458
137482
137626
137639
137725
137752
137641
137558
137560
137577
137569
137563
137694
137739
137769
137805
137715
137667
137654
137639
137592
137601
137663
137712
137755
137762
137696
137723
137699
137670
137747
137776
137805
137837
137803
137845
137772
137765
137750
137742
137745
137828
137868
137853
137868
137858
137838
137846
137831
137792
137783
137801
137807
137881
137902
137901
137858
137824
137827
137836
137866
137893
137902
137980
137969
137987
137885
137832
137874
137893
137911
137939
138026
138004
138044
138013
137914
137919
137948
137947
137935
137931
137961
137945
137965
137965
137942
137943
137931
137979
137996
138006
138042
138071
138087
138084
137972
138023
138035
137981
137971
138031
138157
138198
138213
138191
138099
138089
138107
138049
138064
138104
138145
138159
138171
138201
138119
138075
138069
138127
138203
138233
138266
138268
138261
138273
138243
138191
138244
138231
138158
138170
138203
138221
138369
138331
138259
138288
138257
138204
138195
138232
138282
138333
138382
138408
138351
138307
138278
138227
138233
138226
138334
138369
138299
138261
138191
138276
138370
138416
138369
138323
138388
138378
138352
138313
138241
138232
138253
138223
138160
138183
138268
138334
138397
138449
138303
138300
138328
138238
138211
138291
138448
138397
138311
138381
138387
138413
138437
138505
138463
138453
138520
138566
138640
138691
138627
138597
138574
138557
138537
138546
138502
138509
138475
138502
138373
138250
138216
138120
138007
137986
138014
137986
138014
138066
138078
138153
138138
138149
138172
138226
138296
138343
138360
138381
138348
138325
138308
138445
138400
138335
138420
138371
138369
138385
138396
138414
138433
138439
138384
138377
138424
138400
138408
138422
138393
138354
138340
138331
138313
138360
138454
138431
138431
138378
138408
138396
138379
138396
138392
138366
138401
138386
138387
138444
138391
138436
138387
138356
138425
138529
138663
138622
138528
138562
138486
138467
138439
138431
138376
138473
138549
138524
138620
138645
138560
138568
138583
138553
138519
138465
138610
138665
138632
138616
138547
138594
138708
138727
138716
138670
138740
138712
138692
138677
138606
138606
138680
138729
138719
138633
138726
138820
138838
138867
138776
138712
138661
138729
138779
138715
138734
138755
138765
138786
138738
138736
138755
138773
138751
138727
138788
138763
138760
138813
138778
138712
138710
138723
138693
138648
138716
138706
138652
138727
138718
138672
138671
138699
138674
138698
138716
138682
138710
138734
138678
138637
138637
138616
138616
138589
138625
138676
138846
138909
138831
138794
138793
138718
138677
138673
138750
138761
138759
138839
138807
138773
138784
138796
138784
138772
138837
138847
138933
138963
138879
138871
138846
138864
138839
138795
138858
138923
138917
138877
138816
138848
138908
138878
138837
138800
138880
138902
138927
138931
138816
138744
138777
138791
138974
138964
138949
138974
138986
139010
138993
138988
138963
138917
138884
138864
138977
139017
139024
139082
139030
138984
138985
139024
138964
138876
138929
138930
138963
139032
139038
139018
138934
138869
138847
138857
138971
139011
139006
139005
138958
138956
138957
138963
138945
138913
139005
139039
139032
139021
138908
138847
138890
138894
138921
138993
139040
139072
139069
139013
139012
139014
139040
139080
139053
139017
139084
139146
139131
139120
139101
139086
139053
139027
139057
139034
139071
139115
139183
139181
139136
139060
139085
139100
139104
139032
139090
139177
139220
139183
139180
139183
139123
139144
139195
139270
139362
139407
139370
139345
139314
139263
139264
139278
139206
139190
139283
139384
139370
139345
139366
139344
139315
139298
139298
139293
139363
139351
139347
139368
139354
139326
139313
139304
139273
139244
139362
139505
139511
139476
139498
139444
139499
139561
139510
139475
139512
139526
139501
139501
139536
139492
139382
139420
139435
139406
139471
139519
139523
139492
139449
139464
139483
139514
139437
139350
139424
139603
139667
139589
139552
139530
139570
139582
139549
139557
139622
139629
139632
139599
139549
139462
139424
139510
139557
139621
139665
139680
139689
139666
139629
139587
139525
139512
139498
139458
139551
139636
139737
139748
139712
139662
139588
139528
139470
139476
139611
139692
139665
139667
139626
139590
139578
139578
139632
139603
139636
139673
139695
139723
139695
139634
139614
139659
139737
139665
139672
139697
139678
139655
139678
139708
139700
139665
139707
139686
139702
139736
139724
139720
139710
139670
139647
139628
139618
139673
139793
139868
139932
139900
139854
139855
139884
139885
139905
139883
139972
139930
139913
139878
139868
139755
139669
139580
139521
139344
139345
139325
139368
139472
139564
139504
139441
139478
139502
139528
139607
139641
139651
139696
139716
139805
139810
139844
139850
139830
139972
139991
140034
140035
139978
139981
139933
139875
139886
139885
139944
140022
140112
140135
140123
140070
140002
140035
140047
139951
140048
140156
140191
140187
140191
140108
140106
140135
140116
140049
140106
140127
140171
140296
140308
140262
140205
140152
140104
140130
140209
140307
140303
140242
140205
140254
140257
140239
140258
140228
140188
140231
140285
140366
140326
140292
140284
140325
140368
140343
140336
140307
140320
140352
140326
140299
140321
140341
140333
140270
140303
140379
140384
140457
140544
140594
140505
140469
140420
140291
140236
140266
140296
140407
140471
140450
140455
140459
140445
140391
140448
140475
140473
140428
140396
140350
140323
140385
140327
140244
140294
140406
140380
140357
140284
140364
140487
140416
140342
140193
140180
140228
140152
140114
140204
140390
140293
140194
140176
140080
140112
140179
140206
140241
140210
140210
140176
140165
140135
140061
140106
140144
140167
140145
140132
140173
140183
140122
140132
140027
140099
140191
140159
140155
140084
140122
140161
140209
140157
140112
140160
140214
140206
140213
140139
140184
140217
140213
140179
140087
140152
140287
140312
140298
140211
140190
140206
140285
140268
140166
140197
140237
140226
140238
140259
140260
140303
140336
140251
140174
140217
140271
140316
140284
140241
140236
140199
140260
140344
140270
140311
140317
140305
140295
140299
140287
140281
140305
140290
140179
140212
140306
140395
140473
140447
140368
140400
140380
140370
140315
140403
140400
140315
140341
140312
140304
140295
140268
140312
140303
140371
140429
140469
140447
140428
140418
140354
140338
140405
140330
140311
140390
140461
140465
140437
140453
140451
140373
140372
140350
140387
140436
140469
140492
140455
140411
140444
140423
140434
140431
140459
140479
140550
140538
140485
140491
140421
140374
140436
140450
140453
140488
140559
140556
140553
140634
140559
140502
140502
140470
140518
140529
140557
140541
140519
140556
140616
140601
140568
140502
140541
140578
140565
140580
140685
140716
140658
140611
140582
140523
140603
140644
140684
140682
140611
140620
140684
140657
140720
140705
140733
140778
140820
140886
140848
140792
140720
140691
140679
140648
140697
140809
140828
140767
140740
140804
140856
140794
140771
140725
140792
140881
140864
140833
140797
140819
140849
140882
140885
140804
140852
140881
140886
140821
140780
140783
140812
140869
140943
140916
140941
140902
140899
140928
140914
140957
140899
140864
140851
140825
140861
140943
140930
140998
140942
140914
140933
140911
140884
140911
140921
140995
140985
141003
141005
141032
141009
140950
140970
140869
140912
141002
141070
141070
141001
140994
140985
140924
140901
140959
140961
141048
141093
141046
141058
141110
141061
141031
141070
141061
141056
141062
141104
141071
141017
141030
141025
141016
141011
140992
141043
141086
141073
141075
141061
141112
141117
141120
141084
141039
141008
141049
141128
141196
141313
141428
141380
141285
141220
141256
141274
141311
141347
141392
141458
141435
141368
141253
141161
141004
140946
140915
140918
140919
140807
140841
140818
140751
140718
140700
140740
140820
140972
141056
141083
141157
141106
141057
141119
141137
141131
141208
141287
141273
141282
141350
141270
141244
141258
141213
141237
141250
141311
141345
141339
141358
141327
141300
141318
141343
141373
141362
141346
141271
141275
141424
141396
141372
141377
141376
141448
141560
141548
141620
141579
141608
141561
141530
141497
141489
141520
141577
141574
141574
141579
141657
141663
141615
141629
141636
141671
141722
141744
141752
141648
141704
141744
141691
141747
141740
141709
141757
141774
141833
141852
141915
141947
141913
141954
141906
141864
141930
141944
141970
141999
142074
142032
141988
141990
141947
141986
142041
142060
142085
142008
142095
142091
142105
142066
142075
142057
142120
142140
142132
142127
142153
142076
142046
141997
142007
142043
141988
142069
142141
142091
142137
142118
142088
142033
142014
141978
142070
142242
142293
142182
142192
142126
142062
142050
142035
142067
142106
142091
142095
142086
142128
142086
142037
141997
141914
141921
141937
142015
142163
142120
142111
142027
141981
141940
141911
141913
141987
142049
142037
141950
142061
142078
142094
142060
142009
141943
141991
142037
142036
142062
142125
142063
142020
142066
142042
142091
142137
142199
142191
142078
142119
142105
142171
142225
142254
142224
142246
142272
142246
142197
142224
142193
142151
142161
142243
142283
142294
142328
142309
142302
142329
142342
142320
142306
142187
142164
142296
142419
142467
142426
142492
142467
142394
142352
142413
142417
142445
142453
142448
142426
142449
142457
142491
142492
142489
142461
142485
142496
142503
142423
142459
142513
142461
142507
142469
142502
142533
142557
142568
142569
142607
142543
142609
142572
142508
142524
142510
142527
142593
142622
142607
142637
142603
142584
142547
142525
142570
142584
142630
142561
142578
142551
142532
142544
142515
142522
142608
142663
142646
142593
142660
142631
142578
142568
142586
142616
142659
142725
142759
142668
142689
142672
142613
142583
142539
142613
142618
142684
142771
142691
142708
142733
142666
142619
142609
142653
142645
142641
142632
142610
142671
142672
142625
142620
142536
142565
142625
142758
142742
142752
142850
142832
142795
142720
142634
142605
142630
142668
142732
142763
142799
142752
142714
142669
142647
142674
142692
142689
142658
142584
142608
142624
142560
142573
142582
142646
142691
142717
142728
142700
142728
142741
142675
142600
142515
142517
142523
142653
142717
142736
142713
142742
142710
142669
142630
142623
142607
142649
142668
142637
142712
142721
142648
142584
142553
142539
142526
142591
142616
142555
142532
142560
142532
142538
142553
142581
142639
142645
142596
142548
142516
142530
142532
142506
142454
142419
142484
142532
142593
142535
142569
142600
142629
142574
142539
142530
142504
142486
142499
142484
142560
142623
142539
142502
142432
142434
142506
142536
142466
142398
142421
142509
142469
142353
142317
142282
142271
142286
142322
142312
142419
142463
142395
142375
142304
142236
142206
142249
142308
142315
142404
142354
142267
142249
142212
142217
142232
142253
142304
142223
142243
142188
142157
142213
142169
142152
142159
142226
142208
142185
142219
142248
142325
142326
142228
142290
142337
142356
142358
142266
142267
142243
142175
142110
141993
141948
141970
141903
141854
141731
141664
141614
141567
141581
141609
141670
141665
141687
141680
141648
141708
141751
141759
141837
141783
141795
141798
141867
141962
141907
141975
142098
142015
141822
141760
141762
141686
141759
141902
141881
141887
141877
141834
141825
141736
141691
141695
141785
141857
141759
141767
141830
141800
141753
141669
141603
141738
141854
141826
141678
141688
141720
141713
141675
141658
141670
141671
141651
141671
141629
141606
141617
141642
141639
141610
141618
141564
141522
141522
141508
141539
141572
141529
141525
141526
141563
141546
141509
141489
141462
141469
141506
141500
141475
141415
141431
141467
141511
141516
141446
141434
141435
141426
141382
141311
141377
141405
141440
141445
141376
141448
141471
141432
141334
141287
141314
141299
141352
141405
141423
141445
141376
141274
141201
141207
141225
141329
141345
141251
141219
141257
141227
141155
141094
141039
141075
141095
141084
141067
141084
141119
141185
141071
140956
140968
141023
141003
141011
140982
141020
141027
141033
141003
140897
140812
140841
140858
140855
140852
140824
140883
140967
140914
140840
140814
140796
140752
140785
140869
140915
140867
140819
140701
140663
140665
140700
140762
140800
140743
140648
140654
140777
140769
140703
140699
140756
140741
140724
140757
140760
140775
140772
140733
140672
140583
140634
140671
140740
140703
140662
140649
140670
140661
140652
140618
140596
140545
140582
140667
140719
140721
140716
140640
140565
140518
140511
140427
140433
140424
140387
140584
140657
140520
140491
140491
140506
140443
140445
140437
140350
140347
140489
140507
140409
140373
140385
140317
140298
140346
140348
140352
140361
140311
140274
140285
140225
140185
140238
140285
140312
140347
140321
140305
140280
140157
140184
140171
140151
140193
140298
140319
140302
140162
140092
140096
140123
140213
140218
140241
140190
140171
140133
140137
140106
140087
140115
140112
140111
140195
140150
140127
140106
140045
140067
140001
140005
140034
140052
140047
140004
140031
140047
139925
139834
139829
139928
139890
139981
140056
140076
140090
140094
140031
139956
139951
139913
139906
139894
139950
139963
139978
139959
139923
139876
139844
139881
139828
139807
139892
139923
139954
139931
139933
139876
139835
139811
139779
139794
139865
139804
139835
139847
139790
139707
139704
139738
139725
139704
139768
139732
139717
139754
139774
139763
139738
139766
139747
139738
139787
139784
139782
139797
139752
139652
139531
139540
139577
139691
139831
139773
139726
139716
139717
139675
139634
139624
139568
139567
139626
139658
139628
139607
139576
139534
139476
139482
139448
139373
139445
139485
139564
139643
139657
139613
139516
139532
139525
139514
139564
139510
139530
139580
139598
139523
139408
139444
139411
139430
139488
139443
139413
139461
139502
139460
139462
139480
139473
139444
139467
139411
139402
139407
139426
139447
139416
139459
139449
139422
139474
139440
139488
139501
139503
139438
139397
139426
139415
139405
139444
139422
139468
139502
139475
139409
139373
139424
139340
139278
139282
139295
139356
139422
139392
139354
139320
139320
139278
139271
139321
139341
139418
139396
139406
139292
139240
139271
139293
139278
139282
139282
139288
139323
139313
139256
139184
139250
139259
139254
139307
139274
139293
139291
139269
139195
139152
139254
139286
139245
139240
139296
139343
139360
139372
139391
139356
139311
139358
139418
139451
139489
139512
139462
139411
139369
139339
139289
139178
139109
139051
138927
138879
138957
138997
138987
138790
138848
138892
138960
138994
139040
139104
139085
139088
139003
139051
139131
139190
139281
139286
139244
139218
139251
139326
139307
139226
139247
139220
139206
139223
139239
139271
139270
139333
139259
139233
139255
139192
139186
139296
139278
139253
139315
139343
139361
139273
139244
139197
139157
139165
139216
139310
139343
139362
139347
139212
139157
139210
139285
139283
139282
139293
139247
139256
139201
139159
139274
139267
139204
139295
139327
139343
139232
139252
139270
139221
139228
139215
139288
139263
139292
139296
139306
139332
139269
139178
139161
139126
139131
139203
139284
139319
139342
139308
139255
139171
139133
139188
139282
139333
139310
139304
139353
139337
139282
139229
139159
139178
139230
139367
139395
139339
139260
139244
139247
139223
139217
139292
139282
139261
139263
139303
139323
139270
139247
139134
139185
139198
139186
139229
139261
139245
139199
139213
139134
139067
139075
139092
139067
139067
139058
139039
139023
139115
139192
139164
139149
139079
139011
139027
139051
139132
139116
139224
139160
139106
139093
139047
139045
139068
139146
139222
139246
139250
139188
139172
139196
139194
139114
139154
139157
139173
139195
139249
139180
139108
139179
139199
139129
139184
139217
139200
139206
139253
139229
139116
139154
139249
139306
139284
139212
139247
139362
139422
139382
139318
139336
139349
139295
139354
139352
139348
139361
139406
139389
139287
139277
139285
139344
139381
139365
139373
139404
139413
139320
139255
139265
139275
139397
139450
139383
139402
139403
139333
139437
139382
139362
139350
139309
139336
139413
139486
139444
139393
139340
139349
139364
139343
139350
139343
139364
139440
139438
139447
139374
139292
139319
139319
139336
139395
139351
139400
139381
139386
139444
139337
139356
139386
139390
139427
139437
139462
139436
139481
139461
139416
139452
139456
139419
139430
139450
139641
139637
139626
139616
139519
139430
139464
139497
139503
139605
139652
139654
139683
139636
139551
139568
139531
139482
139514
139498
139490
139543
139613
139677
139624
139623
139551
139486
139526
139596
139628
139618
139618
139580
139530
139512
139530
139511
139610
139749
139769
139698
139655
139559
139478
139447
139540
139601
139703
139741
139693
139657
139658
139620
139539
139515
139506
139523
139636
139722
139734
139698
139649
139640
139573
139565
139593
139592
139559
139582
139587
139572
139604
139577
139527
139552
139564
139601
139589
139555
139523
139526
139570
139635
139595
139587
139632
139585
139645
139630
139623
139588
139635
139668
139680
139646
139641
139662
139635
139629
139605
139587
139639
139694
139611
139519
139548
139595
139597
139703
139736
139722
139727
139706
139640
139665
139673
139672
139654
139699
139817
139836
139812
139778
139656
139663
139709
139732
139762
139707
139684
139695
139752
139821
139848
139853
139810
139791
139789
139720
139754
139759
139679
139675
139676
139739
139787
139719
139692
139735
139858
139910
139899
139849
139776
139766
139729
139739
139712
139697
139790
139907
139890
139826
139766
139780
139841
139819
139854
139799
139792
139721
139718
139682
139729
139762
139848
139833
139879
139894
139964
140001
140088
140146
140038
139989
140060
140071
140056
140056
140094
140080
140060
140000
139794
139677
139627
139540
139493
139538
139579
139512
139469
139490
139472
139522
139545
139538
139603
139619
139659
139680
139786
139835
139750
139761
139794
139807
139819
139841
139964
140052
140062
140049
139920
139920
139943
139980
139960
139971
140049
140059
140027
140026
139945
139937
139929
139959
139904
139919
139982
140004
140032
140036
139939
139931
139961
140001
140009
140017
140130
140138
140043
140053
139993
140010
139988
139904
139938
139916
139986
140019
140018
140127
140119
140122
140139
140135
140085
140040
140149
140168
140176
140137
140039
140042
140190
140170
140139
140056
140109
140184
140134
140039
139965
139979
139998
140062
140070
140103
140147
140191
140228
140293
140233
140185
140126
140084
140086
140058
140076
140124
140164
140273
140223
140214
140178
140174
140234
140190
140216
140225
140210
140247
140235
140236
140172
140096
140065
140101
140279
140425
140342
140240
140165
140170
140139
140147
140124
140137
140186
140196
140215
140205
140090
140070
140004
139988
140002
139972
140103
140111
140054
140008
139981
140009
139941
139962
140003
140065
140133
140110
140045
140015
139972
139979
140007
140010
139935
139971
140059
140116
140161
140128
140040
140027
140019
140004
139930
139933
140007
140030
140064
140011
139916
140004
140093
140152
140178
140131
140143
140218
140199
140219
140164
140072
140081
140115
140177
140165
140137
140137
140162
140211
140223
140227
140258
140241
140206
140258
140298
140301
140282
140334
140289
140273
140254
140243
140240
140228
140309
140376
140351
140336
140224
140259
140354
140285
140219
140196
140275
140365
140425
140399
140326
140383
140337
140267
140254
140308
140417
140492
140423
140388
140315
140254
140281
140277
140347
140392
140350
140365
140392
140417
140397
140336
140277
140302
140254
140264
140309
140324
140422
140441
140354
140328
140357
140368
140302
140292
140337
140444
140545
140505
140430
140445
140430
140405
140390
140359
140423
140496
140471
140528
140582
140565
140486
140409
140479
140490
140497
140463
140492
140547
140512
140442
140425
140494
140509
140538
140648
140728
140802
140744
140677
140623
140576
140597
140604
140708
140757
140831
140821
140862
140742
140689
140702
140728
140723
140663
140745
140824
140890
140914
140878
140813
140785
140763
140681
140644
140757
140797
140857
140908
140885
140881
140840
140862
140910
140851
140889
140897
140927
140954
140908
140891
140861
140870
140951
140962
141055
141052
140998
140974
140936
140918
140903
140956
140967
140916
140961
140999
140955
140955
140928
140916
140923
140928
140910
140870
140944
140953
140912
140884
140830
140879
140940
140926
140907
140974
141095
141084
141043
140974
140998
141002
141068
141051
141045
140982
140988
141094
141103
141091
141068
141021
141008
141008
141011
140969
141091
141117
141110
141126
141106
141089
141050
141136
141111
141019
141074
141157
141155
141180
141120
141081
141044
141005
140984
141017
141062
141147
141283
141322
141228
141197
141185
141201
141168
141170
141285
141316
141271
141211
141128
141064
141082
141139
141162
141095
141215
141327
141296
141269
141232
141191
141121
141079
141108
141115
141185
141237
141231
141232
141202
141191
141279
141348
141290
141276
141386
141508
141509
141499
141438
141383
141345
141306
141225
141140
141128
141091
141052
140984
140928
140821
140787
140800
140812
140839
140907
140911
140931
141042
141126
141159
141159
141217
141247
141206
141244
141319
141351
141329
141297
141276
141228
141329
141338
141317
141488
141441
141414
141345
141281
141269
141238
141395
141414
141344
141372
141429
141418
141433
141410
141312
141285
141352
141367
141360
141406
141431
141441
141504
141439
141407
141409
141429
141417
141357
141370
141367
141317
141355
141367
141426
141459
141471
141447
141377
141468
141498
141411
141409
141371
141330
141335
141307
141332
141300
141378
141471
141522
141543
141500
141405
141311
141300
141313
141339
141404
141511
141527
141503
141511
141463
141373
141312
141335
141371
141526
141553
141435
141440
141508
141467
141460
141461
141527
141526
141580
141529
141440
141452
141478
141564
141588
141615
141536
141449
141468
141483
141491
141483
141427
141463
141554
141515
141508
141427
141452
141458
141476
141447
141351
141328
141265
141341
141347
141337
141413
141394
141397
141381
141322
141323
141315
141297
141284
141245
141265
141399
141508
141517
141437
141421
141427
141422
141388
141305
141390
141398
141409
141406
141438
141423
141320
141294
141358
141324
141393
141421
141433
141495
141536
141448
141339
141316
141322
141316
141403
141618
141579
141566
141528
141457
141391
141453
141526
141421
141519
141650
141567
141545
141606
141603
141549
141506
141483
141461
141535
141608
141586
141538
141524
141563
141588
141550
141598
141513
141525
141547
141562
141588
141573
141556
141540
141492
141438
141445
141566
141630
141608
141595
141615
141617
141582
141537
141488
141498
141556
141617
141643
141641
141654
141645
141572
141568
141643
141629
141622
141625
141587
141560
141526
141563
141494
141493
141518
141482
141541
141634
141726
141651
141617
141598
141537
141532
141518
141487
141471
141540
141571
141588
141618
141629
141694
141700
141666
141571
141621
141685
141706
141719
141695
141655
141682
141605
141563
141535
141589
141665
141684
141686
141680
141746
141699
141676
141726
141692
141701
141792
141818
141797
141758
141725
141678
141626
141669
141665
141723
141786
141802
141791
141760
141747
141717
141698
141697
141632
141625
141640
141641
141640
141672
141695
141654
141602
141632
141671
141677
141723
141744
141751
141748
141714
141642
141630
141642
141673
141758
141803
141827
141805
141769
141757
141704
141635
141594
141570
141656
141727
141804
141781
141804
141779
141634
141521
141575
141526
141674
141785
141834
141878
141848
141786
141740
141693
141682
141644
141657
141686
141689
141719
141750
141760
141741
141653
141642
141637
141680
141685
141685
141719
141743
141753
141666
141692
141765
141728
141705
141731
141750
141709
141668
141704
141682
141628
141610
141601
141691
141790
141858
141794
141759
141738
141639
141671
141776
141738
141772
141802
141755
141801
141811
141759
141689
141650
141695
141670
141747
141843
141858
141835
141827
141880
141816
141767
141751
141664
141709
141773
141749
141691
141709
141840
141837
141786
141688
141598
141632
141661
141710
141781
141823
141835
141761
141741
141793
141743
141762
141759
141760
141738
141686
141661
141659
141732
141864
141794
141813
141863
141889
141879
141901
141912
141873
141816
141780
141773
141837
142012
142067
141998
141945
141982
141957
142023
142012
142000
142011
142021
141953
141915
141842
141788
141626
141476
141430
141409
141379
141432
141476
141535
141526
141539
141464
141455
141492
141435
141491
141653
141693
141760
141710
141787
141868
141836
141854
141921
141937
141925
141891
141877
141872
141880
141845
141826
141802
141770
141821
141892
141925
141983
141948
141953
141983
141924
141919
141851
141864
141976
142008
141992
141914
141909
141947
141948
141978
141959
141982
142017
142010
142000
141995
142036
142036
142050
142056
141963
142002
142058
142059
142032
142037
142039
141982
141994
141958
141921
141963
141955
142036
142089
142008
142011
141957
141977
141984
141882
141932
141998
141953
142014
142095
142025
141953
141895
141922
141927
141934
142009
142114
142099
142086
142122
142072
142033
141991
141983
141992
142037
142058
142019
142012
142107
142090
142025
142085
142078
142059
142063
142050
142003
141955
142032
142007
141800
141808
141892
141916
141987
142033
142030
141929
141981
141991
141921
141861
141835
141864
141880
141860
141827
141818
141825
141768
141708
141712
141773
141843
141818
141868
141878
141852
141868
141830
141794
141809
141755
141787
141862
141871
141832
141897
141916
141867
141862
141861
141794
141808
141856
141963
141975
141868
141838
141780
141772
141789
141696
141595
141620
141723
141861
141932
142020
141998
141897
141881
141844
141826
141832
141873
141848
141808
141867
141848
141801
141812
141816
141823
141841
141870
141817
141774
141846
141861
141825
141781
141759
141756
141810
141825
141805
141732
141694
141715
141826
141853
141766
141719
141762
141753
141725
141731
141877
141907
141866
141816
141756
141736
141804
141843
141836
141837
141887
141901
141808
141784
141691
141710
141774
141799
141798
141779
141765
141784
141727
141715
141732
141802
141839
141847
141937
141888
141836
141805
141769
141731
141725
141720
141787
141827
141889
141880
141875
141886
141795
141804
141776
141806
141828
141806
141886
141907
141957
141893
141805
141701
141744
141767
141779
141864
141904
141857
141866
141812
141776
141807
141761
141791
141847
141847
141844
141836
141870
141767
141680
141687
141724
141757
141842
141875
141834
141834
141880
141877
141805
141738
141664
141693
141735
141746
141818
141832
141863
141829
141788
141700
141650
141683
141731
141761
141754
141694
141703
141727
141706
141694
141688
141769
141744
141761
141818
141798
141812
141740
141673
141679
141634
141666
141780
141820
141835
141736
141796
141853
141760
141711
141670
141626
141635
141724
141824
141802
141808
141804
141769
141755
141697
141638
141580
141676
141783
141740
141785
141760
141760
141697
141690
141767
141725
141742
141855
141868
141823
141807
141728
141658
141654
141682
141704
141809
141752
141694
141701
141781
141782
141781
141722
141727
141746
141777
141762
141702
141749
141770
141758
141764
141777
141780
141772
141777
141807
141739
141807
141775
141711
141716
141731
141718
141756
141825
141851
141832
141813
141775
141741
141766
141731
141729
141745
141713
141722
141813
141926
141933
141823
141785
141744
141777
141748
141808
141825
141738
141699
141677
141715
141804
141793
141752
141813
141855
141871
141830
141827
141817
141716
141665
141661
141679
141732
141790
141825
141803
141832
141849
141809
141718
141678
141667
141700
141709
141705
141680
141691
141715
141684
141677
141643
141656
141674
141781
141937
141965
141951
141903
141935
141927
141853
141822
141856
141908
141931
141904
141896
141969
141920
141782
141693
141653
141622
141628
141576
141449
141394
141345
141342
141271
141260
141304
141413
141484
141486
141470
141477
141513
141532
141524
141469
141615
141790
141827
141858
141779
141788
141796
141759
141708
141639
141650
141687
141804
141809
141777
141825
141833
141829
141777
141804
141787
141714
141764
141788
141751
141804
141779
141683
141748
141688
141712
141694
141736
141772
141769
141751
141832
141705
141662
141671
141709
141676
141748
141827
141813
141826
141839
141714
141696
141692
141703
141730
141834
141852
141788
141749
141843
141784
141753
141740
141710
141792
141826
141821
141713
141691
141699
141665
141706
141653
141720
141824
141795
141699
141657
141724
141816
141831
141749
141683
141747
141807
141841
141837
141808
141828
141800
141740
141704
141710
141739
141670
141756
141829
141807
141854
141846
141757
141698
141695
141709
141706
141759
141740
141684
141755
141800
141758
141733
141669
141645
141630
141709
141731
141652
141683
141670
141651
141599
141528
141506
141507
141564
141668
141706
141694
141716
141727
141674
141562
141560
141563
141591
141583
141611
141617
141545
141474
141466
141493
141551
141566
141563
141582
141565
141577
141606
141580
141524
141509
141528
141541
141594
141569
141504
141516
141538
141509
141510
141525
141486
141471
141525
141568
141548
141585
141570
141573
141503
141498
141536
141532
141628
141639
141612
141652
141726
141683
141575
141573
141567
141593
141694
141736
141735
141680
141686
141683
141640
141587
141623
141623
141634
141657
141638
141628
141637
141649
141596
141555
141597
141601
141585
141611
141611
141650
141678
141656
141583
141512
141532
141601
141687
141805
141692
141660
141664
141622
141620
141582
141598
141574
141552
141637
141704
141722
141736
141686
141610
141562
141544
141528
141622
141686
141624
141612
141664
141652
141598
141550
141579
141488
141567
141637
141590
141700
141710
141687
141674
141667
141603
141507
141512
141518
141500
141509
141554
141566
141599
141576
141612
141566
141574
141591
141571
141551
141573
141538
141609
141567
141575
141542
141544
141531
141556
141610
141603
141587
141513
141514
141513
141494
141495
141513
141545
141611
141595
141547
141575
141609
141575
141527
141568
141650
141592
141584
141618
141621
141521
141454
141461
141450
141508
141502
141517
141560
141579
141563
141565
141527
141495
141467
141472
141426
141346
141443
141585
141577
141656
141629
141603
141562
141534
141540
141501
141597
141607
141557
141469
141429
141437
141391
141417
141474
141536
141543
141547
141567
141472
141445
141488
141477
141517
141571
141539
141542
141519
141472
141450
141402
141406
141407
141529
141632
141627
141575
141609
141563
141538
141508
141495
141457
141459
141501
141496
141622
141614
141563
141470
141400
141400
141410
141505
141541
141602
141612
141613
141642
141599
141521
141539
141520
141497
141548
141546
141509
141506
141518
141475
141405
141472
141547
141591
141659
141578
141590
141583
141571
141493
141413
141471
141516
141522
141528
141532
141529
141577
141610
141600
141548
141520
141482
141474
141533
141541
141567
141550
141562
141512
141411
141433
141374
141377
141412
141402
141454
141570
141637
141653
141631
141695
141637
141654
141751
141664
141654
141698
141706
141712
141613
141596
141515
141428
141435
141448
141421
141349
141253
141150
141066
141053
141064
141055
141100
141128
141165
141222
141252
141243
141240
141343
141417
141386
141410
141551
141548
141627
141591
141484
141454
141491
141552
141541
141615
141605
141606
141636
141602
141528
141457
141528
141507
141554
141599
141576
141586
141620
141615
141569
141554
141584
141549
141480
141496
141512
141529
141561
141561
141548
141561
141558
141600
141551
141566
141570
141587
141660
141714
141649
141558
141597
141646
141681
141706
141715
141735
141764
141747
141699
141634
141584
141537
141596
141595
141644
141685
141710
141694
141678
141599
141617
141585
141562
141516
141606
141690
141746
141779
141712
141647
141588
141676
141693
141773
141849
141909
141853
141821
141756
141658
141675
141692
141716
141737
141727
141794
141791
141757
141729
141696
141682
141679
141703
141827
141788
141705
141712
141723
141735
141652
141691
141724
141678
141698
141668
141633
141672
141749
141611
141445
141396
141454
141508
141611
141616
141668
141614
141564
141541
141490
141391
141392
141487
141511
141541
141603
141629
141646
141533
141429
141493
141503
141495
141481
141457
141517
141543
141491
141449
141410
141463
141444
141461
141451
141397
141400
141431
141439
141431
141426
141433
141446
141475
141496
141448
141451
141534
141560
141468
141401
141414
141487
141439
141487
141410
141406
141510
141546
141512
141508
141476
141426
141393
141464
141481
141581
141607
141585
141468
141381
141426
141471
141472
141506
141531
141551
141508
141504
141466
141499
141604
141552
141455
141495
141530
141566
141588
141580
141526
141417
141408
141400
141441
141508
141484
141483
141521
141545
141532
141464
141396
141355
141336
141441
141493
141563
141585
141572
141478
141365
141380
141328
141300
141387
141417
141387
141451
141458
141398
141388
141378
141384
141413
141415
141374
141448
141530
141475
141424
141399
141474
141543
141595
141554
141471
141426
141467
141478
141406
141370
141439
141421
141387
141455
141450
141485
141442
141482
141475
141422
141502
141404
141247
141279
141304
141423
141491
141491
141498
141446
141444
141440
141388
141388
141325
141330
141365
141396
141448
141349
141404
141434
141444
141444
141416
141427
141450
141533
141463
141337
141337
141359
141332
141398
141409
141441
141467
141458
141375
141204
141221
141252
141208
141268
141368
141413
141445
141453
141403
141359
141340
141331
141339
141334
141306
141344
141324
141363
141368
141323
141326
141317
141318
141344
141308
141302
141374
141413
141478
141407
141355
141348
141343
141410
141400
141504
141453
141384
141352
141277
141315
141311
141290
141291
141330
141437
141482
141469
141437
141369
141396
141394
141352
141354
141333
141312
141345
141468
141516
141373
141364
141393
141359
141385
141391
141475
141429
141385
141348
141355
141421
141429
141518
141469
141471
141503
141517
141529
141464
141428
141381
141361
141368
141442
141500
141537
141512
141583
141558
141434
141415
141397
141382
141337
141328
141389
141538
141481
141484
141413
141418
141460
141419
141438
141467
141435
141402
141392
141395
141342
141363
141307
141311
141392
141396
141413
141481
141542
141471
141411
141390
141344
141296
141330
141379
141395
141446
141483
141500
141458
141440
141487
141465
141435
141459
141479
141492
141579
141650
141600
141590
141604
141520
141413
141378
141393
141418
141361
141242
141124
141107
141104
141102
141053
140983
141008
141056
141083
141023
140900
140941
141013
141072
141077
141108
141238
141345
141387
141439
141403
141290
141305
141314
141296
141267
141302
141334
141351
141299
141221
141358
141376
141356
141422
141401
141377
141381
141357
141324
141308
141331
141353
141329
141311
141294
141378
141365
141359
141330
141242
141241
141286
141351
141345
141386
141386
141362
141371
141361
141268
141278
141239
141233
141279
141387
141500
141456
141409
141367
141260
141263
141262
141282
141365
141369
141341
141361
141348
141290
141225
141264
141308
141271
141289
141322
141401
141432
141405
141378
141337
141273
141225
141217
141275
141383
141484
141372
141455
141423
141303
141348
141362
141400
141422
141348
141353
141405
141389
141418
141422
141351
141313
141341
141373
141326
141405
141365
141364
141393
141379
141402
141351
141292
141272
141323
141443
141376
141368
141421
141358
141308
141289
141307
141233
141146
141217
141249
141258
141218
141187
141191
141163
141160
141199
141231
141327
141310
141231
141163
141152
141208
141148
141141
141196
141249
141290
141289
141306
141284
141170
141160
141194
141177
141165
141187
141191
141166
141189
141196
141139
141127
141120
141092
141136
141166
141231
141178
141172
141199
141167
141237
141219
141212
141202
141208
141227
141248
141227
141197
141120
141095
141024
141045
141074
141128
141208
141215
141201
141288
141186
141207
141194
141125
141046
141017
141068
141126
141253
141307
141221
141210
141199
141216
141274
141252
141255
141236
141218
141244
141223
141201
141200
141168
141184
141136
141140
141171
141249
141294
141205
141177
141151
141160
141168
141161
141206
141193
141224
141230
141164
141202
141198
141171
141096
141072
141104
141314
141351
141313
141249
141228
141199
141167
141056
141073
141176
141226
141262
141297
141244
141226
141180
141157
141137
141099
141167
141172
141107
141091
141056
141125
141245
141363
141313
141271
141281
141255
141292
141377
141264
141190
141173
141196
141176
141205
141279
141350
141357
141333
141257
141252
141238
141282
141317
141301
141297
141294
141264
141323
141301
141302
141320
141241
141254
141277
141332
141431
141444
141352
141314
141294
141284
141276
141279
141325
141345
141383
141351
141378
141350
141330
141319
141307
141268
141319
141416
141458
141460
141500
141406
141418
141425
141396
141323
141286
141335
141321
141355
141450
141441
141491
141438
141356
141282
141266
141406
141517
141473
141519
141502
141473
141385
141358
141353
141386
141408
141441
141419
141485
141489
141417
141467
141467
141407
141480
141618
141592
141522
141561
141514
141493
141485
141485
141426
141418
141458
141432
141450
141427
141423
141506
141517
141516
141513
141415
141463
141533
141601
141644
141576
141573
141534
141493
141502
141491
141603
141597
141519
141521
141532
141513
141429
141458
141475
141441
141481
141522
141545
141558
141538
141523
141541
141496
141464
141411
141462
141536
141585
141595
141565
141515
141480
141497
141483
141418
141431
141443
141485
141463
141441
141377
141390
141430
141429
141445
141504
141530
141511
141507
141428
141413
141362
141414
141466
141388
141467
141421
141356
141398
141400
141364
141353
141412
141451
141419
141508
141490
141425
141454
141407
141320
141261
141281
141396
141384
141390
141435
141481
141554
141580
141550
141427
141433
141493
141578
141670
141635
141555
141578
141532
141469
141396
141308
141227
141122
141125
141063
141078
141086
141004
140934
140870
140841
140862
140845
140928
141088
141139
141135
141180
141187
141157
141165
141202
141180
141221
141308
141405
141435
141354
141282
141199
141200
141223
141331
141427
141442
141428
141453
141349
141325
141301
141340
141389
141323
141351
141378
141345
141326
141215
141248
141341
141399
141269
141178
141289
141324
141296
141336
141368
141325
141271
141264
141281
141232
141265
141303
141392
141438
141353
141271
141211
141227
141200
141153
141278
141364
141366
141380
141337
141321
141277
141260
141302
141257
141236
141285
141314
141315
141293
141324
141330
141258
141214
141171
141277
141349
141293
141279
141256
141236
141289
141287
141226
141177
141238
141268
141311
141336
141366
141351
141343
141282
141187
141143
141219
141376
141412
141406
141339
141310
141237
141238
141245
141182
141329
141364
141319
141356
141398
141320
141236
141178
141146
141223
141341
141340
141321
141297
141272
141206
141117
141125
141137
141109
141185
141109
141108
141185
141189
141165
141164
141208
141184
141103
141118
141114
141103
141099
141097
141075
141038
141021
141080
141108
141158
141195
141127
141108
141052
141039
141021
141129
141109
141020
141069
141142
141160
141202
141139
141009
140961
140963
141049
140998
141115
141138
141125
141167
141133
141072
141035
141008
140997
140931
141077
141137
141159
141182
141132
141110
141060
141055
141024
141057
141141
141101
141061
141081
141159
141264
141168
141128
141119
141062
141129
141130
141188
141173
141149
141149
141069
140992
141036
141064
141200
141221
141233
141194
141169
141127
141077
141021
141069
141032
141088
141197
141212
141177
141193
141188
141130
141103
141013
140960
141079
141160
141240
141239
141221
141130
141101
141146
141145
141055
141116
141224
141239
141219
141185
141139
141117
141142
141098
141142
141136
141184
141213
141190
141150
141122
141051
141000
141010
141002
141079
141150
141183
141193
141162
141180
141179
141106
141097
141069
141109
141137
141149
141157
141182
141147
141062
141079
141132
141165
141177
141124
141150
141141
141171
141275
141225
141122
141073
141081
141148
141183
141189
141165
141128
141176
141202
141247
141184
141046
141117
141118
141162
141187
141207
141151
141097
141068
141096
140994
141069
141186
141189
141240
141249
141228
141202
141203
141184
141076
141042
141010
141023
141094
141139
141258
141209
141248
141274
141197
141205
141204
141171
141185
141225
141268
141154
141056
141037
141113
141256
141347
141408
141351
141269
141267
141213
141155
141159
141088
141158
141248
141290
141256
141205
141176
141159
141118
141125
141072
141248
141330
141299
141291
141228
141223
141178
141145
141137
141084
141210
141255
141297
141338
141337
141307
141209
141218
141286
141256
141276
141290
141266
141347
141358
141344
141274
141262
141275
141259
141282
141282
141301
141323
141258
141284
141339
141372
141415
141386
141357
141355
141311
141257
141326
141386
141393
141360
141423
141409
141389
141396
141395
141382
141348
141356
141338
141287
141275
141262
141310
141393
141486
141400
141305
141279
141236
141351
141390
141339
141365
141448
141451
141420
141458
141417
141327
141330
141409
141386
141407
141328
141310
141344
141364
141382
141425
141428
141446
141360
141340
141395
141458
141450
141496
141506
141483
141427
141437
141450
141474
141540
141575
141618
141599
141605
141551
141481
141467
141481
141547
141751
141732
141538
141359
141287
141213
141217
141252
141133
141027
141096
141110
141149
141188
141142
141068
141085
141195
141259
141357
141447
141455
141418
141435
141475
141502
141509
141483
141468
141477
141517
141575
141583
141576
141609
141559
141458
141462
141484
141492
141592
141598
141584
141658
141714
141680
141660
141614
141514
141603
141749
141710
141668
141704
141758
141800
141747
141692
141628
141651
141695
141770
141811
141773
141792
141749
141723
141750
141741
141725
141728
141706
141711
141780
141794
141737
141683
141688
141656
141714
141771
141745
141707
141674
141751
141769
141764
141746
141705
141709
141788
141857
141931
141947
141897
141840
141825
141837
141768
141728
141733
141818
141798
141824
141901
141872
141781
141751
141760
141767
141827
141871
141872
141882
141955
141858
141791
141790
141636
141576
141632
141739
141798
141819
141840
141820
141805
141800
141820
141805
141798
141832
141834
141823
141840
141770
141735
141729
141713
141686
141714
141726
141734
141695
141711
141655
141617
141635
141573
141623
141631
141622
141572
141531
141483
141496
141565
141496
141525
141585
141586
141540
141625
141632
141611
141543
141540
141505
141476
141477
141460
141523
141557
141518
141598
141595
141534
141453
141365
141396
141491
141527
141525
141446
141549
141542
141540
141534
141480
141454
141482
141480
141521
141500
141522
141475
141433
141404
141341
141338
141433
141493
141425
141359
141414
141450
141430
141405
141329
141232
141268
141321
141401
141361
141346
141324
141280
141274
141320
141369
141360
141375
141400
141338
141377
141370
141316
141341
141287
141246
141257
141297
141314
141276
141358
141304
141267
141248
141142
141170
141201
141145
141117
141035
141059
141088
141087
141067
141023
141045
141099
141172
141197
141127
141085
141087
140976
141009
141070
141109
141144
141114
141033
141010
141049
140985
140998
140886
140828
140886
140912
140935
140960
140940
140961
141007
140944
140907
140846
140793
140781
140833
140850
140768
140860
140844
140764
140722
140687
140713
140745
140801
140746
140705
140751
140730
140734
140742
140670
140665
140672
140685
140694
140575
140558
140597
140619
140617
140537
140529
140533
140551
140594
140519
140498
140484
140457
140406
140309
140298
140345
140407
140421
140302
140375
140515
140474
140465
140365
140198
140209
140297
140435
140353
140321
140309
140225
140193
140120
140155
140196
140248
140186
140173
140135
140119
140111
140066
139996
140025
140039
140030
140037
140009
139998
139964
139894
139871
139884
139874
139805
139841
139873
139833
139913
139943
139868
139828
139748
139709
139767
139803
139848
139814
139839
139790
139656
139562
139564
139538
139530
139590
139593
139512
139544
139509
139491
139477
139454
139441
139478
139459
139453
139389
139444
139461
139368
139267
139241
139219
139312
139411
139340
139288
139331
139320
139261
139263
139246
139236
139198
139182
139256
139247
139220
139167
139117
139123
139074
139033
138989
138970
138974
138973
139010
139002
138933
138874
138818
138771
138791
138808
138770
138781
138851
138826
138739
138654
138601
138616
138620
138567
138562
138536
138599
138662
138635
138613
138603
138544
138558
138544
138459
138363
138369
138361
138356
138377
138393
138341
138266
138295
138336
138367
138405
138352
138281
138187
138149
138177
138236
138352
138381
138317
138321
138266
138191
138154
138079
138029
137959
137903
137801
137695
137681
137617
137559
137427
137300
137370
137306
137410
137419
137352
137448
137589
137590
137528
137424
137423
137500
137535
137486
137534
137641
137566
137510
137495
137442
137484
137484
137482
137452
137409
137413
137337
137264
137217
137233
137255
137250
137264
137261
137206
137226
137210
137128
137052
137239
137208
137153
137148
137082
137065
137111
137208
137180
137077
137001
136997
136881
136871
136916
136904
137031
137037
136974
136914
136824
136829
136798
136812
136836
136767
136776
136814
136818
136768
136744
136733
136652
136649
136715
136724
136698
136682
136668
136641
136515
136430
136394
136461
136640
136710
136706
136662
136565
136477
136414
136434
136489
136523
136485
136426
136528
136579
136555
136577
136425
136254
136257
136338
136398
136491
136477
136473
136397
136317
136244
136270
136235
136250
136274
136205
136159
136201
136237
136277
136232
136184
136134
136105
136083
136082
136100
136106
136085
136022
135939
135918
136023
136074
136077
136003
135963
135936
135903
135873
135867
135825
135843
135876
135949
135926
135885
135829
135759
135724
135714
135731
135675
135691
135779
135773
135816
135770
135689
135625
135596
135615
135649
135704
135751
135695
135695
135673
135697
135647
135594
135600
135511
135481
135470
135439
135481
135612
135619
135565
135516
135449
135456
135498
135515
135476
135507
135469
135405
135360
135287
135292
135317
135460
135516
135500
135532
135457
135356
135326
135279
135243
135219
135257
135314
135392
135496
135445
135419
135398
135302
135284
135298
135308
135281
135229
135247
135227
135247
135311
135254
135235
135191
135289
135308
135272
135291
135284
135232
135164
135066
135066
135126
135197
135285
135221
135192
135227
135281
135203
135100
135167
135144
135140
135141
135093
135158
135166
135104
135040
134990
135060
135093
135112
135098
135101
135121
135191
135176
135052
134986
134989
135005
135015
135066
134975
134921
134995
135046
135027
135056
135030
134992
135009
135056
135012
134991
134990
134934
134902
134885
134834
134856
134918
134958
134918
134907
134887
134836
134850
134858
134921
135012
134998
134964
134921
134939
134926
134921
134890
134807
134862
134825
134786
134780
134772
134791
134934
135030
134985
134913
134900
134843
134823
134848
134810
134794
134818
134804
134802
134823
134786
134781
134834
134885
134824
134790
134815
134815
134748
134654
134783
134822
134799
134887
134873
134814
134789
134799
134786
134740
134738
134715
134718
134738
134757
134748
134748
134638
134590
134612
134765
134826
134803
134770
134756
134825
134851
134800
134751
134662
134604
134623
134708
134779
134790
134746
134749
134740
134759
134592
134584
134519
134564
134769
134855
134847
134871
134820
134764
134695
134666
134630
134650
134708
134674
134713
134723
134711
134669
134656
134736
134699
134659
134704
134754
134665
134586
134613
134632
134612
134660
134793
134801
134792
134781
134822
134800
134774
134722
134661
134602
134596
134643
134715
134747
134761
134735
134731
134743
134670
134669
134621
134586
134686
134736
134756
134748
134749
134733
134680
134724
134731
134735
134743
134732
134663
134668
134682
134608
134591
134608
134680
134761
134776
134727
134793
134748
134720
134677
134530
134557
134564
134571
134677
134743
134817
134791
134750
134615
134638
134707
134696
134688
134675
134627
134645
134662
134643
134663
134623
134608
134638
134626
134729
134754
134782
134844
134838
134849
134866
134877
134845
134852
134918
134887
134885
134875
134794
134728
134681
134688
134649
134567
134529
134455
134428
134353
134305
134342
134310
134349
134369
134341
134375
134492
134563
134542
134545
134495
134463
134638
134695
134729
134667
134615
134691
134679
134714
134774
134748
134786
134818
134836
134855
134817
134861
134818
134754
134678
134671
134725
134683
134708
134783
134761
134797
134914
134920
134877
134757
134782
134849
134806
134867
134804
134846
134877
134870
134846
134761
134753
134745
134794
134861
134879
134849
134827
134867
134819
134787
134877
134908
134832
134959
134966
134956
134968
134978
134915
134913
134919
134850
134853
134930
134881
135000
135063
135044
135025
134946
134989
134994
134946
135002
134997
135039
135086
135017
134946
134795
134838
134859
134930
135061
135015
135076
135194
135195
135173
135096
135061
135012
134995
135024
135072
135129
135209
135264
135187
135074
135113
135089
135070
135085
135049
135048
135146
135205
135201
135099
135073
135040
135054
135114
135072
135037
135130
135266
135279
135217
135184
135160
135096
135099
135022
135042
135060
135110
135119
135083
135092
135083
135099
135162
135150
135164
135126
135117
135104
135159
135189
135124
135052
135072
135092
135099
135070
135201
135253
135173
135100
135102
135137
135168
135156
135185
135198
135220
135134
135102
135167
135203
135166
135198
135241
135256
135270
135282
135230
135133
135179
135337
135302
135256
135231
135275
135260
135249
135256
135201
135226
135269
135286
135361
135298
135258
135242
135267
135244
135258
135288
135301
135241
135221
135236
135286
135306
135325
135312
135269
135329
135334
135284
135279
135345
135473
135508
135581
135522
135487
135498
135432
135405
135456
135396
135399
135488
135481
135508
135506
135525
135484
135481
135486
135532
135581
135527
135510
135443
135393
135447
135500
135532
135543
135553
135562
135575
135580
135541
135438
135567
135574
135497
135523
135488
135535
135585
135597
135662
135676
135665
135705
135624
135642
135621
135613
135620
135635
135676
135652
135698
135650
135621
135646
135687
135713
135722
135716
135656
135611
135621
135633
135572
135608
135647
135710
135711
135707
135697
135647
135749
135796
135768
135725
135729
135729
135699
135754
135787
135716
135705
135745
135772
135777
135757
135760
135745
135800
135809
135758
135771
135828
135805
135793
135776
135784
135697
135711
135750
135713
135881
135962
135852
135800
135805
135849
135817
135817
135733
135705
135727
135809
135808
135852
135844
135817
135824
135816
135811
135831
135871
135839
135817
135846
135837
135842
135846
135944
135930
135803
135775
135841
135878
135907
135941
135972
135935
135920
135928
135850
135848
135808
135798
135872
135963
136032
136036
136024
135977
135930
135926
135906
135827
135794
135830
135919
135975
136082
136131
135997
135982
135980
135952
135964
136006
136101
136069
136000
135970
135971
135993
135994
136005
136131
136194
136190
136173
136172
136161
136111
136107
136099
136055
136151
136165
136147
136139
136161
136217
136144
136176
136154
136098
136104
136171
136246
136282
136296
136306
136231
136213
136200
136225
136290
136284
136386
136386
136391
136418
136333
136316
136302
136241
136199
136244
136304
136332
136418
136426
136327
136295
136292
136266
136309
136381
136418
136404
136425
136400
136328
136297
136263
136240
136248
136347
136423
136373
136396
136421
136365
136418
136404
136317
136303
136295
136347
136421
136492
136443
136379
136442
136432
136436
136437
136478
136511
136542
136547
136599
136595
136599
136641
136664
136669
136711
136788
136835
136765
136712
136571
136524
136498
136446
136368
136307
136257
136273
136212
136113
136099
136103
136219
136237
136217
136238
136357
136358
136340
136416
136377
136401
136500
136598
136581
136564
136634
136635
136652
136654
136571
136593
136578
136655
136628
136622
136718
136851
136791
136767
136721
136626
136621
136636
136643
136689
136739
136738
136692
136659
136672
136795
136815
136829
136866
136850
136880
136844
136832
136860
136816
136842
136867
136854
136829
136843
136883
136876
136908
136944
136892
136874
136878
136937
136930
136894
136974
136990
136976
136974
136881
136851
136894
136929
136930
136828
136877
136879
136874
136962
136958
137090
137102
137027
136992
136973
137077
137104
137143
137154
137072
137039
136985
136987
136958
137016
137093
137140
137159
137167
137090
137037
137070
137071
137112
137102
137082
137032
137049
137197
137139
137156
137256
137223
137205
137227
137181
137175
137173
137190
137132
137143
137175
137157
137118
137134
137172
137186
137196
137235
137138
137107
137113
137090
137045
137021
137130
137169
137171
137230
137208
137223
137186
137145
137128
137128
137129
137142
137067
137095
137038
137128
137224
137242
137272
137274
137226
137231
137231
137254
137169
137194
137182
137153
137096
137098
137194
137278
137274
137333
137334
137293
137287
137239
137278
137291
137339
137376
137314
137328
137275
137270
137264
137214
137237
137326
137345
137432
137445
137454
137361
137348
137349
137366
137382
137384
137419
137409
137345
137382
137433
137375
137397
137444
137471
137531
137581
137515
137543
137600
137543
137500
137524
137486
137428
137456
137471
137502
137581
137540
137431
137385
137494
137506
137536
137642
137676
137683
137683
137578
137452
137472
137597
137730
137716
137641
137624
137647
137629
137618
137595
137567
137538
137552
137547
137608
137691
137684
137718
137755
137660
137644
137639
137643
137616
137576
137574
137591
137702
137731
137666
137677
137673
137629
137693
137731
137774
137735
137782
137778
137802
137815
137748
137743
137752
137682
137741
137772
137811
137808
137716
137676
137719
137743
137727
137749
137885
137870
137808
137779
137763
137787
137823
137844
137816
137808
137864
137863
137813
137719
137611
137654
137750
137825
137848
137888
137958
138009
138006
137984
137913
137846
137830
137835
137833
137814
137877
137927
137964
137963
137907
137883
137853
137847
137856
137866
137971
137995
137975
137963
137906
137940
137983
138010
137988
137936
137940
137990
138001
138026
137995
137965
138030
137966
137945
137922
137954
137957
138013
138018
137967
137978
138051
138075
138023
138029
138105
138120
138120
138126
138077
138098
138101
138052
138081
138075
138160
138131
138133
138179
138156
138131
138094
138106
138152
138119
138174
138164
138106
138203
138170
138185
138191
138238
138152
138082
138143
138221
138251
138274
138202
138145
138185
138203
138190
138228
138295
138332
138370
138394
138315
138270
138295
138319
138365
138406
138446
138365
138346
138359
138364
138299
138291
138330
138346
138254
138258
138259
138257
138297
138385
138332
138280
138269
138251
138306
138399
138410
138386
138362
138384
138422
138426
138482
138427
138354
138379
138352
138399
138476
138427
138412
138405
138405
138359
138350
138449
138486
138490
138484
138441
138398
138384
138435
138392
138325
138400
138450
138489
138480
138430
138402
138387
138431
138442
138440
138469
138558
138545
138639
138725
138702
138684
138690
138675
138565
138630
138701
138671
138550
138422
138323
138222
138203
138199
138128
138159
138289
138282
138236
138222
138179
138112
138237
138259
138226
138375
138402
138426
138465
138481
138530
138515
138557
138479
138420
138523
138567
138558
138634
138725
138702
138756
138690
138629
138619
138699
138731
138678
138661
138640
138622
138587
138672
138656
138615
138655
138731
138812
138805
138754
138710
138681
138662
138674
138656
138692
138704
138652
138689
138737
138794
138843
138837
138784
138760
138872
138881
138827
138835
138821
138779
138690
138743
138764
138734
138845
138928
138958
138885
138910
138911
138903
138883
138856
138781
138878
139027
139043
138997
139019
138987
138905
138869
138907
138840
138914
139021
139028
139000
138960
138931
138939
138979
139027
138963
139019
139042
139059
139087
139062
139031
138946
138949
138854
138870
139067
139107
139075
139043
139031
139006
138913
138844
138805
138795
139032
139274
139235
139110
139030
139030
138984
138971
138908
138869
138908
138989
139150
139077
139000
138954
138962
138942
138938
138883
138944
138998
139003
138984
138907
138919
138884
138888
138915
138842
138928
139094
139129
139072
138976
138974
138943
138928
138870
138839
138948
139072
139053
139073
139081
139015
138943
138871
138876
138868
138973
139027
139017
139013
139023
138974
138917
138898
138931
138861
138919
138979
139036
139119
139074
138999
139062
139032
139014
138961
138966
139009
139065
139134
139142
139205
139158
139079
139089
139040
139042
139056
139055
139068
139086
139146
139184
139192
139168
139074
139100
139069
139032
139022
138993
139078
139151
139207
139166
139100
139109
139105
139127
139114
139111
139132
139041
139045
139063
138997
139011
139068
139152
139186
139239
139253
139211
139261
139207
139021
139064
139164
139165
139190
139188
139180
139174
139211
139291
139122
139096
139188
139165
139189
139156
139148
139141
139158
139196
139131
139178
139275
139279
139268
139205
139180
139098
139151
139244
139226
139285
139259
139246
139284
139295
139217
139156
139171
139285
139297
139302
139318
139347
139315
139315
139321
139328
139325
139323
139246
139250
139318
139291
139327
139302
139375
139369
139291
139320
139297
139341
139467
139532
139534
139482
139442
139349
139338
139386
139345
139341
139384
139458
139510
139484
139433
139377
139374
139334
139285
139338
139422
139500
139587
139526
139491
139461
139411
139436
139434
139446
139439
139417
139416
139493
139495
139485
139491
139495
139406
139393
139514
139510
139448
139462
139522
139504
139537
139478
139461
139552
139558
139618
139703
139650
139564
139465
139396
139455
139517
139596
139614
139611
139603
139603
139591
139527
139489
139464
139538
139603
139606
139567
139504
139482
139469
139546
139574
139633
139624
139625
139668
139709
139726
139702
139703
139649
139600
139631
139570
139581
139704
139761
139695
139670
139719
139659
139617
139642
139674
139736
139790
139815
139770
139758
139734
139690
139778
139815
139648
139751
139776
139757
139751
139690
139720
139744
139768
139804
139752
139713
139667
139762
139786
139838
139830
139782
139747
139776
139698
139675
139782
139814
139805
139817
139774
139769
139777
139768
139712
139700
139749
139798
139876
139863
139899
139832
139796
139783
139748
139790
139791
139846
139849
139833
139898
139898
139855
139885
139844
139881
139954
140015
140063
140114
140170
140091
140041
140124
140079
140041
140030
139968
139932
139861
139843
139773
139636
139571
139512
139501
139542
139568
139644
139628
139633
139553
139636
139653
139675
139732
139787
139797
139832
139892
140012
140031
139997
139956
139919
139895
139960
140013
140053
140058
140081
140059
140022
139986
139901
139894
139973
140145
140119
140066
140113
140123
140076
140077
140052
140101
140116
140196
140261
140224
140246
140243
140187
140191
140164
140167
140236
140244
140266
140221
140304
140303
140215
140156
140103
140119
140149
140205
140285
140220
140262
140268
140249
140231
140183
140170
140212
140214
140186
140143
140195
140218
140261
140237
140229
140283
140369
140391
140408
140380
140370
140270
140206
140287
140318
140393
140534
140506
140462
140439
140442
140440
140450
140445
140433
140416
140441
140413
140395
140383
140507
140457
140470
140438
140383
140385
140348
140361
140457
140403
140466
140568
140490
140410
140382
140397
140449
140482
140523
140506
140515
140507
140393
140293
140348
140361
140404
140453
140490
140383
140364
140390
140431
140431
140296
140322
140397
140413
140444
140447
140432
140375
140371
140390
140324
140348
140349
140385
140396
140358
140442
140411
140322
140277
140234
140279
140328
140321
140333
140352
140441
140459
140353
140358
140452
140487
140477
140486
140492
140483
140515
140447
140338
140342
140357
140412
140451
140511
140603
140582
140551
140518
140482
140427
140393
140397
140478
140584
140532
140466
140579
140593
140558
140493
140445
140397
140461
140490
140593
140582
140649
140616
140506
140508
140546
140575
140618
140664
140609
140571
140624
140583
140551
140518
140446
140489
140537
140566
140596
140587
140621
140573
140513
140464
140467
140517
140551
140566
140592
140570
140578
140491
140496
140428
140341
140385
140396
140418
140561
140606
140608
140640
140599
140630
140659
140602
140609
140576
140596
140558
140594
140582
140528
140487
140464
140572
140570
140601
140681
140606
140605
140607
140533
140581
140553
140527
140527
140580
140581
140585
140652
140640
140568
140567
140548
140621
140598
140585
140584
140618
140627
140609
140544
140508
140536
140579
140648
140702
140643
140637
140682
140631
140612
140637
140643
140643
140670
140766
140766
140644
140671
140639
140585
140525
140563
140611
140641
140685
140677
140648
140657
140640
140588
140523
140490
140526
140589
140700
140684
140676
140691
140743
140663
140617
140640
140710
140690
140667
140717
140758
140731
140708
140650
140628
140591
140626
140586
140590
140602
140567
140643
140772
140743
140699
140656
140649
140648
140620
140573
140547
140617
140708
140608
140552
140569
140578
140600
140630
140599
140518
140519
140557
140548
140524
140576
140630
140621
140614
140662
140679
140648
140634
140595
140547
140536
140562
140590
140618
140666
140622
140627
140621
140560
140563
140589
140589
140584
140572
140588
140585
140597
140650
140750
140704
140642
140679
140714
140742
140727
140667
140723
140697
140612
140527
140507
140630
140699
140735
140722
140631
140625
140668
140621
140654
140627
140636
140687
140717
140720
140712
140724
140747
140672
140661
140624
140638
140590
140639
140685
140779
140750
140701
140695
140637
140568
140617
140621
140651
140695
140694
140754
140688
140597
140540
140511
140535
140652
140710
140735
140727
140685
140661
140599
140581
140527
140589
140612
140665
140653
140618
140595
140602
140559
140537
140515
140679
140735
140677
140632
140599
140608
140631
140644
140614
140630
140690
140716
140788
140849
140865
140965
140980
140872
140746
140698
140748
140721
140724
140671
140556
140507
140413
140326
140208
140098
140152
140177
140213
140272
140264
140287
140332
140292
140207
140217
140360
140436
140539
140577
140589
140635
140649
140633
140634
140604
140650
140679
140661
140693
140622
140630
140647
140637
140639
140633
140649
140644
140631
140669
140648
140666
140684
140640
140622
140598
140586
140535
140585
140599
140582
140621
140669
140647
140607
140539
140564
140568
140676
140658
140625
140780
140787
140711
140652
140589
140595
140583
140622
140764
140788
140836
140796
140686
140599
140526
140514
140589
140693
140747
140643
140692
140710
140656
140602
140519
140527
140515
140586
140585
140598
140653
140679
140669
140650
140659
140662
140610
140643
140718
140674
140679
140671
140637
140649
140626
140687
140706
140789
140787
140677
140720
140730
140676
140611
140536
140557
140593
140649
140651
140647
140654
140782
140748
140587
140486
140505
140549
140611
140612
140556
140582
140533
140468
140489
140502
140505
140495
140501
140538
140594
140562
140579
140572
140598
140553
140533
140453
140420
140417
140453
140560
140612
140586
140549
140435
140405
140393
140399
140401
140387
140433
140465
140447
140359
140329
140378
140416
140528
140541
140554
140559
140516
140459
140427
140475
140484
140456
140441
140447
140456
140467
140509
140491
140462
140455
140497
140553
140531
140526
140466
140477
140510
140520
140543
140488
140461
140467
140558
140599
140567
140487
140419
140432
140519
140594
140628
140543
140460
140486
140556
140619
140624
140590
140544
140542
140545
140518
140569
140590
140568
140547
140595
140570
140501
140491
140495
140500
140520
140562
140564
140592
140601
140546
140487
140495
140580
140532
140495
140525
140513
140508
140533
140470
140428
140444
140558
140544
140612
140630
140549
140489
140536
140532
140451
140425
140452
140562
140609
140609
140650
140611
140633
140620
140593
140525
140486
140436
140434
140469
140528
140634
140704
140658
140557
140488
140476
140531
140591
140589
140519
140533
140542
140510
140496
140451
140500
140584
140546
140611
140577
140572
140618
140596
140583
140527
140563
140530
140532
140571
140541
140543
140527
140535
140449
140461
140504
140533
140599
140633
140615
140628
140611
140553
140545
140464
140486
140549
140586
140564
140593
140631
140545
140524
140474
140466
140584
140502
140489
140433
140455
140518
140589
140598
140525
140522
140566
140571
140584
140622
140609
140570
140605
140551
140533
140516
140534
140536
140541
140547
140504
140478
140484
140516
140484
140391
140392
140381
140394
140384
140352
140426
140481
140530
140518
140451
140472
140415
140378
140434
140375
140482
140496
140458
140407
140352
140349
140405
140450
140547
140553
140558
140516
140535
140451
140382
140407
140453
140441
140461
140506
140510
140468
140469
140446
140388
140367
140361
140345
140371
140343
140434
140493
140473
140474
140457
140450
140475
140444
140424
140369
140369
140304
140297
140328
140394
140495
140515
140518
140549
140554
140552
140528
140515
140448
140391
140441
140446
140435
140459
140457
140459
140470
140509
140392
140298
140382
140337
140346
140477
140558
140549
140505
140504
140474
140392
140407
140388
140383
140463
140459
140414
140423
140515
140509
140376
140370
140410
140443
140448
140438
140476
140458
140442
140402
140380
140421
140388
140387
140476
140463
140463
140438
140426
140385
140316
140384
140412
140371
140396
140449
140556
140668
140751
140743
140675
140680
140621
140599
140621
140574
140578
140541
140469
140473
140380
140312
140255
140129
140024
139965
140073
140129
140196
140106
140043
140144
140184
140187
140219
140241
140302
140331
140249
140232
140272
140383
140496
140511
140473
140478
140539
140496
140434
140416
140341
140383
140487
140516
140564
140564
140636
140554
140474
140434
140437
140495
140468
140446
140443
140433
140470
140466
140486
140527
140477
140476
140402
140346
140429
140415
140437
140488
140541
140565
140468
140514
140466
140408
140472
140502
140493
140526
140540
140461
140375
140481
140654
140724
140671
140618
140613
140622
140630
140573
140525
140510
140547
140572
140603
140536
140577
140592
140605
140552
140473
140437
140447
140452
140586
140580
140579
140707
140751
140687
140663
140620
140580
140581
140618
140545
140555
140645
140692
140736
140668
140641
140624
140626
140572
140589
140671
140639
140665
140686
140665
140663
140666
140594
140600
140661
140689
140647
140642
140598
140523
140536
140494
140456
140496
140506
140697
140689
140680
140652
140543
140467
140532
140511
140451
140387
140495
140557
140523
140617
140588
140567
140581
140537
140586
140594
140576
140562
140527
140539
140505
140453
140459
140482
140543
140563
140504
140553
140569
140545
140503
140468
140508
140500
140581
140598
140615
140608
140573
140431
140408
140456
140508
140577
140557
140563
140622
140572
140560
140508
140443
140406
140384
140355
140395
140450
140531
140560
140608
140605
140607
140647
140647
140579
140547
140512
140535
140576
140670
140621
140586
140574
140555
140559
140586
140577
140579
140547
140540
140540
140456
140444
140498
140444
140407
140442
140572
140594
140654
140626
140536
140501
140487
140421
140446
140419
140499
140492
140483
140439
140437
140534
140506
140408
140435
140412
140536
140542
140544
140515
140436
140421
140495
140454
140456
140492
140572
140581
140536
140526
140390
140373
140410
140345
140366
140411
140482
140458
140444
140384
140280
140329
140321
140308
140327
140402
140468
140485
140444
140429
140261
140172
140289
140318
140366
140419
140545
140508
140417
140420
140341
140363
140293
140294
140310
140329
140317
140306
140383
140412
140275
140256
140299
140353
140354
140349
140306
140341
140316
140288
140224
140159
140165
140140
140184
140238
140353
140379
140380
140325
140223
140268
140298
140236
140173
140165
140205
140302
140338
140379
140306
140315
140309
140263
140167
140157
140240
140232
140227
140305
140242
140259
140327
140278
140249
140244
140281
140225
140233
140196
140133
140184
140215
140197
140187
140221
140222
140229
140201
140180
140142
140151
140153
140166
140120
140082
140123
140169
140144
140182
140156
140212
140257
140150
140114
140137
140202
140245
140187
140155
140211
140178
140178
140195
140134
140148
140215
140281
140224
140188
140093
140143
140255
140179
140095
140109
140173
140209
140233
140199
140160
140194
140163
140121
140042
139957
139998
140116
140071
140198
140198
140126
140134
140146
140106
140102
140186
140228
140187
140143
140090
140128
140073
140026
140004
140038
140076
140074
140089
140089
140026
139969
139959
139980
139961
139957
140043
140059
140021
140004
140014
139989
139959
139964
139986
140009
140053
140036
140080
140084
140017
140036
139974
139936
140052
140084
140251
140257
140222
140277
140225
140111
140037
140007
139934
139909
139971
139959
139854
139799
139678
139597
139599
139572
139542
139584
139616
139561
139651
139691
139638
139658
139717
139753
139804
139793
139896
140001
139984
139995
139928
139898
139911
139938
139901
139897
139990
140064
140062
140023
139912
139878
139886
139916
139916
139918
139964
139998
140067
140064
139993
139969
139878
139881
139884
139891
139919
139970
139971
139977
139934
139873
139873
139871
139885
139961
140051
139993
139934
139911
139868
139920
139921
139938
139929
139931
139982
139996
139978
139993
139970
140016
140054
139954
139905
139906
139919
139927
139945
139983
139914
139969
139929
139913
139884
139897
139893
139925
139920
140049
139944
139895
139947
139990
139962
139922
139980
140053
140044
140036
139988
139936
139900
139910
139839
139904
140084
140081
140045
140092
140013
139951
139953
139888
139835
139825
139864
139904
139958
140118
140090
140085
139979
139916
139869
139894
139979
139979
140028
140067
139963
139952
139903
139875
139819
139833
139876
139906
139889
139892
139820
139776
139751
139752
139768
139722
139715
139744
139763
139846
139772
139703
139745
139756
139812
139766
139825
139873
139815
139810
139774
139756
139815
139816
139847
139828
139834
139839
139871
139860
139847
139848
139790
139740
139752
139744
139874
139835
139810
139813
139800
139762
139779
139757
139752
139735
139813
139868
139860
139817
139776
139833
139761
139753
139795
139768
139815
139860
139880
139909
139851
139915
139832
139782
139798
139774
139769
139827
139896
139905
139861
139889
139859
139849
139847
139778
139859
139886
139842
139837
139799
139807
139797
139796
139736
139728
139832
139832
139780
139778
139794
139789
139820
139882
139873
139905
139913
139902
139905
139905
139830
139754
139824
139846
139763
139727
139813
139811
139797
139824
139790
139825
139809
139759
139720
139745
139815
139807
139811
139841
139850
139802
139770
139806
139854
139801
139859
139856
139865
139895
139766
139715
139830
139878
139868
139856
139912
139922
139867
139865
139844
139801
139768
139749
139752
139842
139945
139957
139925
139846
139801
139774
139753
139742
139823
139783
139803
139800
139814
139856
139846
139829
139798
139764
139725
139763
139803
139768
139765
139910
139885
139880
139884
139833
139786
139753
139785
139835
139829
139833
139774
139816
139873
139845
139850
139815
139867
139909
139945
140008
139962
139895
139882
139856
139878
139830
139859
139891
139953
139914
139907
139917
139858
139815
139837
139774
139838
139855
139880
139869
139830
139755
139727
139743
139825
139826
139864
139909
139949
139945
139950
139961
139934
139888
139822
139766
139847
139921
139919
139953
139974
139918
139886
139857
139836
139803
139901
140017
140028
139967
139939
139931
139955
140016
139998
139987
140048
140019
140008
140036
139974
139968
139929
139855
139883
139892
139944
139915
139957
139974
139973
139975
139931
139903
139927
139915
139950
139954
139964
139970
139970
139964
139975
139918
139851
139851
139915
140012
140027
140107
140077
139974
139942
139962
139927
139881
139987
140012
140020
139982
139966
139888
139872
139958
139984
139961
139985
140079
140137
140182
140141
140139
140152
140136
140155
140141
140223
140304
140290
140239
140165
140102
140005
139938
139905
139844
139893
139871
139762
139708
139669
139689
139715
139682
139635
139593
139745
139889
139919
139908
139867
139959
139937
139884
139946
139953
140016
140125
140163
140167
140127
140108
140030
139973
139971
139902
139991
140143
140176
140136
140186
140185
140105
140112
140078
139977
140017
140126
140108
140102
140139
140152
140164
140180
140120
140090
140186
140287
140232
140206
140183
140105
140120
140136
140219
140207
140217
140262
140273
140234
140248
140273
140212
140191
140151
140112
140235
140260
140240
140238
140215
140219
140186
140171
140155
140142
140211
140245
140287
140273
140213
140165
140132
140184
140234
140251
140316
140304
140305
140357
140336
140281
140266
140221
140250
140241
140299
140292
140338
140369
140358
140373
140361
140308
140305
140279
140391
140414
140321
140318
140375
140368
140308
140201
140204
140283
140366
140311
140373
140398
140342
140320
140280
140263
140289
140223
140259
140347
140372
140369
140285
140237
140230
140258
140255
140194
140212
140299
140297
140274
140290
140304
140232
140164
140173
140174
140275
140335
140232
140177
140161
140177
140125
140133
140253
140270
140295
140272
140178
140258
140297
140331
140263
140285
140280
140184
140210
140259
140269
140259
140259
140258
140209
140209
140223
140189
140178
140270
140302
140257
140280
140330
140297
140324
140318
140255
140319
140382
140294
140275
140257
140266
140337
140379
140345
140281
140346
140346
140374
140354
140309
140275
140290
140297
140334
140260
140325
140416
140395
140354
140349
140390
140416
140372
140347
140317
140280
140350
140371
140436
140357
140341
140344
140305
140326
140373
140465
140533
140473
140384
140355
140388
140332
140347
140386
140335
140317
140366
140335
140313
140386
140408
140343
140302
140265
140235
140280
140345
140405
140393
140326
140378
140323
140371
140330
140256
140293
140319
140339
140390
140313
140322
140273
140285
140364
140401
140354
140391
140335
140232
140226
140263
140378
140426
140324
140255
140265
140296
140380
140371
140365
140392
140322
140294
140270
140238
140329
140367
140309
140332
140290
140363
140408
140314
140286
140267
140338
140309
140297
140331
140299
140332
140256
140155
140128
140134
140248
140285
140322
140351
140340
140311
140275
140286
140291
140160
140107
140195
140257
140264
140302
140299
140321
140323
140311
140291
140205
140204
140214
140231
140238
140313
140313
140218
140184
140189
140184
140313
140269
140279
140258
140211
140164
140135
140131
140131
140152
140249
140285
140256
140193
140230
140229
140245
140285
140195
140129
140186
140227
140293
140317
140277
140177
140135
140201
140236
140209
140232
140191
140185
140209
140211
140189
140200
140250
140120
140173
140227
140287
140264
140232
140255
140210
140118
140158
140125
140113
140222
140286
140263
140250
140232
140190
140232
140234
140119
140116
140091
140156
140164
140215
140191
140109
140108
140152
140157
140188
140132
140141
140170
140124
140110
140045
140012
139990
140010
140054
140152
140186
140184
140061
140060
139984
139869
139844
139896
139975
140133
140169
140134
140107
140109
140055
140051
140082
140004
140088
140210
140173
140143
140140
140203
140192
140220
140239
140165
140195
140221
140251
140227
140139
140049
139933
139858
139808
139770
139725
139629
139543
139559
139630
139703
139614
139574
139536
139488
139508
139639
139753
139794
139780
139868
139834
139824
139851
139899
139914
139949
139960
139991
139975
139957
139950
139865
139851
139863
139803
139828
139856
139924
139953
140010
139921
139848
139898
139896
139864
139842
139848
139901
139914
139933
139849
139810
139797
139833
139868
139914
139995
139896
139768
139866
139928
139883
139877
139855
139858
139956
139965
139954
139941
139936
139921
139833
139783
139776
139807
139807
139845
139918
139910
139910
139919
139870
139878
139870
139842
139826
139846
139875
139854
139918
139893
139849
139899
139905
139851
139846
139903
139901
139842
139854
139884
139867
139830
139821
139825
139852
139860
139906
139951
139982
139955
139987
139889
139822
139837
139880
139911
139929
139847
139889
139918
139946
139921
139834
139847
139804
139848
139911
139881
139959
139897
139832
139790
139717
139757
139789
139803
139790
139728
139791
139737
139708
139773
139854
139778
139776
139846
139865
139773
139794
139803
139774
139772
139661
139652
139676
139744
139772
139716
139698
139747
139774
139733
139714
139712
139667
139723
139736
139673
139726
139730
139654
139664
139625
139667
139708
139756
139835
139801
139790
139759
139669
139702
139692
139578
139551
139570
139651
139688
139686
139755
139731
139671
139669
139629
139636
139781
139802
139724
139762
139800
139652
139570
139590
139645
139708
139760
139758
139757
139739
139746
139704
139681
139667
139741
139744
139701
139720
139697
139732
139687
139613
139674
139663
139668
139689
139791
139803
139774
139729
139676
139573
139564
139591
139710
139756
139785
139804
139714
139702
139719
139677
139636
139609
139571
139573
139642
139704
139730
139827
139804
139688
139627
139675
139675
139658
139678
139667
139626
139667
139722
139700
139711
139719
139686
139687
139764
139785
139737
139728
139727
139677
139644
139608
139627
139657
139716
139711
139681
139720
139749
139742
139771
139744
139714
139645
139637
139654
139662
139765
139824
139773
139672
139633
139662
139669
139681
139687
139628
139794
139828
139865
139835
139768
139707
139726
139741
139757
139712
139787
139799
139750
139690
139730
139722
139685
139710
139793
139757
139763
139806
139823
139774
139744
139791
139809
139890
139896
139797
139807
139801
139783
139820
139736
139687
139671
139691
139720
139708
139772
139774
139793
139768
139794
139759
139772
139808
139895
139874
139851
139828
139798
139762
139726
139754
139762
139811
139862
139812
139779
139785
139724
139783
139839
139860
139785
139822
139880
139882
139858
139836
139824
139746
139782
139864
139882
139852
139847
139783
139811
139870
139959
139935
139834
139804
139783
139822
139890
139949
139946
140006
139976
139893
139817
139852
139940
139986
139947
139904
139916
139949
139945
139937
139887
139861
139822
139881
139942
139937
139925
139971
139889
139886
139798
139834
139858
139931
139923
139930
139982
139978
139950
139902
139839
139861
139838
139889
139906
139911
139897
139826
139813
139776
139762
139793
139818
139949
140013
139937
140010
139972
139993
139938
139864
139980
139962
139881
139896
139966
140012
140002
139995
139960
139951
139942
139992
140058
140133
140094
140146
140194
140130
140080
140032
140068
140165
140209
140151
140039
139968
139913
139824
139739
139620
139530
139455
139519
139541
139508
139558
139628
139628
139624
139656
139782
139705
139689
139798
139867
139984
140158
140116
140011
139954
139966
139973
140003
140029
139967
140026
140067
139978
139908
139920
139974
139979
139995
140094
140083
140078
140092
140078
139977
139950
139991
139975
140026
140021
140006
140023
139977
139955
140052
140086
140167
140152
140148
140192
140161
140125
140228
140177
140069
140058
140104
140119
140112
140163
140137
140152
140094
140075
140085
140075
140096
140057
140072
140116
140136
140140
140195
140152
140101
140135
140205
140144
140179
140233
140210
140188
140191
140236
140228
140169
140195
140208
140158
140285
140270
140316
140331
140279
140244
140251
140270
140277
140301
140340
140313
140320
140362
140342
140277
140252
140247
140205
140245
140317
140358
140401
140453
140370
140265
140230
140220
140188
140266
140371
140378
140413
140406
140335
140297
140234
140344
140242
140235
140310
140273
140358
140415
140417
140353
140313
140306
140308
140312
140380
140380
140335
140316
140350
140382
140346
140325
140276
140284
140314
140330
140371
140408
140426
140372
140270
140304
140320
140330
140362
140386
140413
140415
140324
140245
140307
140319
140224
140296
140407
140431
140489
140466
140456
140383
140343
140365
140383
140402
140399
140367
140400
140532
140511
140471
140451
140457
140419
140412
140461
140470
140519
140562
140581
140476
140359
140325
140315
140408
140533
140542
140542
140518
140561
140596
140525
140608
140570
140577
140600
140566
140582
140611
140564
140532
140442
140471
140495
140577
140700
140698
140661
140594
140554
140506
140511
140590
140708
140668
140576
140551
140614
140618
140603
140586
140514
140517
140580
140617
140686
140710
140757
140724
140636
140564
140549
140631
140587
140591
140626
140642
140712
140705
140657
140593
140573
140618
140590
140672
140782
140764
140791
140767
140723
140680
140610
140599
140600
140614
140674
140708
140747
140785
140794
140762
140681
140691
140714
140689
140700
140694
140750
140759
140714
140717
140737
140737
140631
140636
140746
140787
140738
140721
140762
140795
140781
140771
140752
140727
140789
140809
140756
140801
140775
140788
140761
140730
140766
140754
140761
140723
140743
140794
140813
140848
140795
140792
140721
140687
140786
140892
140960
140971
140918
140871
140797
140835
140825
140786
140815
140842
140919
140956
140936
140875
140791
140815
140849
140843
140889
140931
140936
140945
140920
140842
140792
140826
140811
140817
140865
140858
140882
140975
140988
140962
140879
140963
140908
140961
141010
140960
140911
140934
141045
141026
140966
140963
140913
140909
141015
141030
141047
141022
141057
140990
140946
140945
140946
140905
140890
140888
140975
141068
141126
141073
141056
141063
141037
141007
141040
141037
141125
141099
141084
141090
141011
140966
141010
141054
141025
141026
141094
141076
141046
140998
140959
140979
140944
140941
140971
140981
141030
140945
140968
141011
140985
140977
141039
141039
141019
141010
141061
141116
141136
141042
140959
140956
140936
140948
141029
141100
141148
141126
141168
141139
141111
141119
141077
141093
141128
141103
141126
141137
141120
141158
141223
141297
141315
141299
141274
141217
141285
141346
141371
141281
141095
141024
141034
140858
140793
140811
140836
140787
140713
140593
140590
140726
140757
140725
140753
140796
140930
141026
141045
141043
140981
140992
141072
141062
141083
141093
141171
141195
141163
141139
141100
141084
141064
141046
141149
141190
141213
141220
141275
141223
141129
141122
141151
141146
141217
141184
141237
141242
141272
141304
141224
141227
141164
141089
141113
141236
141392
141448
141410
141340
141292
141302
141265
141225
141271
141255
141314
141309
141342
141377
141279
141256
141236
141223
141254
141271
141291
141357
141441
141375
141297
141326
141302
141230
141250
141251
141320
141472
141569
141542
141493
141410
141376
141367
141362
141389
141455
141493
141506
141458
141410
141379
141379
141441
141426
141492
141493
141468
141543
141541
141470
141460
141493
141453
141422
141422
141465
141496
141462
141427
141401
141532
141533
141471
141521
141530
141570
141570
141628
141646
141583
141507
141559
141427
141452
141470
141591
141634
141642
141605
141531
141469
141477
141456
141504
141482
141517
141518
141489
141451
141357
141282
141334
141352
141437
141451
141517
141537
141594
141560
141450
141412
141390
141346
141467
141506
141465
141446
141507
141551
141538
141464
141467
141450
141491
141534
141559
141552
141598
141576
141438
141392
141408
141451
141501
141573
141566
141512
141531
141465
141397
141452
141578
141550
141534
141549
141596
141657
141611
141537
141483
141462
141441
141479
141592
141679
141772
141737
141717
141779
141698
141716
141644
141508
141513
141574
141652
141698
141713
141673
141595
141665
141678
141682
141674
141660
141698
141704
141702
141689
141692
141713
141664
141641
141607
141649
141712
141764
141790
141769
141650
141628
141693
141680
141732
141772
141830
141865
141843
141827
141728
141727
141712
141697
141687
141715
141794
141785
141853
141789
141749
141798
141815
141781
141790
141725
141749
141858
141876
141848
141721
141722
141740
141703
141735
141793
141875
141815
141798
141798
141690
141752
141775
141762
141755
141803
141871
141897
141906
141832
141744
141747
141827
141946
141931
141911
141917
141931
141947
141937
141867
141908
141894
141858
141879
141898
141915
141862
141931
141991
141989
141904
141847
141808
141797
141795
141831
141905
141938
141951
141906
141945
141977
141936
141921
141911
141928
141950
141988
142046
142016
141929
141930
141891
141901
141937
141981
141980
142063
142094
142046
141987
141992
141991
141931
141956
142052
142061
142002
141997
141963
141974
141973
142008
142020
141975
141956
141961
141983
141982
141933
141933
141974
141958
141967
142006
142087
142119
142101
142134
141994
141979
142004
142023
142045
142101
142111
142106
142149
142120
142054
142011
141963
142041
142030
142014
142064
142126
142135
142207
142204
142143
142067
142080
142086
142089
142081
142059
142038
142056
142102
142094
142034
142004
142021
142085
142201
142182
142222
142269
142176
142179
142189
142159
142169
142168
142197
142225
142223
142215
142175
142162
142181
142131
142130
142128
142189
142199
142213
142227
142148
142152
142155
142103
142116
142148
142151
142206
142226
142215
142127
142137
142187
142180
142137
142102
142136
142156
142152
142322
142291
142230
142222
142183
142095
142099
142075
142033
142099
142169
142183
142281
142342
142271
142283
142301
142357
142382
142350
142392
142343
142359
142362
142326
142353
142355
142325
142337
142315
142319
142181
142122
142113
142053
141941
141822
141823
141826
141923
141935
141901
141925
141844
141825
141918
141986
142089
142135
142165
142189
142117
142152
142172
142237
142199
142198
142228
142228
142272
142270
142299
142276
142234
142255
142258
142230
142255
142306
142342
142401
142382
142286
142272
142290
142294
142341
142410
142425
142400
142423
142369
142382
142369
142366
142300
142314
142400
142433
142472
142393
142301
142326
142273
142325
142369
142425
142493
142473
142440
142494
142405
142270
142294
142328
142423
142423
142487
142489
142542
142561
142509
142499
142433
142448
142440
142416
142468
142471
142489
142542
142488
142405
142462
142564
142559
142526
142588
142556
142547
142542
142530
142539
142576
142601
142530
142501
142566
142563
142618
142650
142559
142548
142524
142516
142472
142525
142641
142571
142543
142565
142593
142583
142555
142613
142589
142646
142748
142734
142686
142648
142609
142616
142547
142539
142542
142519
142562
142572
142555
142590
142609
142546
142497
142531
142517
142485
142514
142512
142487
142446
142399
142463
142466
142560
142538
142433
142441
142586
142575
142583
142461
142464
142417
142455
142478
142493
142541
142526
142494
142530
142495
142539
142572
142521
142501
142479
142551
142617
142591
142595
142581
142561
142519
142482
142454
142461
142511
142493
142506
142538
142525
142457
142436
142482
142477
142454
142513
142550
142556
142534
142553
142557
142545
142567
142526
142557
142649
142664
142729
142678
142627
142627
142671
142658
142625
142608
142651
142668
142647
142611
142573
142622
142652
142623
142556
142470
142586
142661
142695
142725
142717
142667
142651
142616
142591
142586
142614
142626
142707
142726
142691
142709
142691
142708
142675
142680
142708
142704
142732
142786
142740
142704
142713
142656
142612
142607
142622
142650
142728
142778
142740
142679
142649
142642
142646
142635
142721
142818
142801
142833
142749
142645
142600
142622
142554
142568
142706
142729
142625
142601
142748
142829
142804
142730
142729
142682
142734
142753
142777
142761
142737
142726
142736
142694
142708
142690
142813
142792
142724
142777
142758
142720
142718
142702
142727
142700
142714
142756
142767
142772
142733
142688
142694
142668
142646
142677
142758
142841
142883
142829
142748
142738
142688
142660
142689
142695
142756
142807
142811
142851
142795
142747
142677
142632
142679
142617
142744
142887
142923
142873
142805
142811
142771
142751
142733
142724
142798
142829
142842
142819
142730
142680
142643
142745
142760
142718
142752
142799
142780
142773
142823
142839
142839
142793
142760
142700
142751
142852
142904
142940
142850
142816
142821
142847
142803
142765
142853
142895
142872
142824
142775
142897
142871
142820
142831
142795
142828
142848
142892
142947
142931
142864
142827
142793
142760
142711
142865
143011
143012
142977
142922
142873
142789
142777
142836
142808
143008
143067
143048
143041
142938
142891
142920
142973
143009
142937
142942
142979
143032
143039
142934
142875
142828
142867
142893
142876
142856
142894
142993
142994
143004
142933
142884
142860
142863
142873
142977
143038
142968
142884
142883
142904
142882
142873
142826
142820
142941
142983
142921
142919
142894
142948
142928
142883
142854
142834
142884
142913
142919
142938
142875
142876
142899
142911
142987
142983
143003
143085
143092
143075
143101
143107
143137
143141
143135
143074
143131
143106
143074
143053
143004
143022
142874
142787
142757
142603
142523
142493
142501
142611
142579
142568
142585
142619
142621
142605
142622
142716
142719
142751
142803
142848
142888
142911
142910
142964
143069
143108
143057
143039
143005
142988
142951
142964
142946
142899
142983
142995
142963
142950
142925
142914
142987
143000
143029
143012
143025
143068
143063
143013
143026
143043
143010
142938
142951
142965
142990
143021
143083
143102
143060
143054
143076
143103
143072
143021
143144
143164
143186
143163
143045
143042
143101
143073
143057
143002
143029
143100
143066
143113
143153
143112
143146
143170
143153
143092
143124
143152
143148
143177
143169
143161
143096
143094
143125
143093
143138
143175
143193
143193
143203
143210
143120
143114
143181
143134
143112
143146
143202
143238
143224
143256
143254
143223
143209
143117
143112
143178
143223
143244
143270
143262
143233
143186
143129
143081
143168
143280
143261
143237
143182
143193
143173
143161
143235
143153
143132
143117
143146
143157
143155
143121
143047
143069
143060
143005
143079
143117
143105
143092
143061
143054
143105
143157
143100
143013
143022
143044
143037
143067
143105
143092
143076
143024
143031
143017
143038
143107
143133
143078
143023
143067
143050
143005
143026
143012
143026
143116
143112
143094
143105
143103
143101
143090
143077
143028
143022
143092
143106
143065
143052
143108
143099
143084
143057
143036
143051
143177
143146
143174
143187
143234
143228
143195
143141
143113
143122
143142
143231
143297
143185
143170
143156
143131
143160
143105
143101
143206
143262
143240
143205
143224
143240
143199
143158
143141
143146
143164
143167
143196
143146
143220
143180
143208
143202
143187
143166
143186
143244
143305
143280
143270
143192
143142
143157
143120
143154
143221
143287
143298
143207
143225
143252
143231
143195
143078
143139
143190
143162
143210
143276
143315
143263
143196
143205
143166
143179
143228
143285
143299
143235
143233
143205
143129
143119
143102
143147
143202
143171
143146
143195
143310
143332
143222
143161
143142
143143
143169
143120
143130
143190
143276
143249
143212
143182
143212
143281
143280
143282
143292
143293
143338
143300
143173
143094
143075
143163
143231
143269
143228
143202
143337
143283
143208
143208
143116
143129
143210
143253
143233
143240
143287
143307
143255
143227
143148
143146
143245
143277
143224
143255
143286
143263
143213
143171
143173
143209
143246
143232
143314
143249
143233
143313
143276
143220
143209
143201
143224
143235
143223
143260
143335
143203
143144
143159
143171
143239
143307
143303
143333
143272
143306
143324
143269
143212
143144
143185
143257
143379
143412
143312
143276
143257
143189
143213
143192
143263
143291
143268
143283
143282
143303
143263
143201
143230
143335
143303
143266
143246
143280
143322
143375
143321
143289
143274
143306
143272
143380
143371
143351
143299
143331
143352
143307
143318
143290
143255
143341
143425
143474
143392
143445
143478
143429
143408
143380
143386
143458
143486
143441
143429
143479
143425
143345
143332
143393
143433
143368
143361
143403
143348
143437
143446
143315
143292
143307
143288
143321
143335
143263
143235
143294
143367
143451
143489
143407
143383
143393
143377
143369
143391
143470
143409
143387
143369
143323
143335
143362
143422
143425
143365
143368
143346
143291
143281
143268
143269
143305
143414
143442
143394
143465
143429
143388
143484
143465
143459
143501
143490
143487
143466
143470
143396
143328
143251
143168
143172
143171
143129
143092
142986
142991
142981
142941
142945
142953
143019
142991
143049
143140
143172
143243
143181
143104
143104
143117
143189
143266
143377
143417
143361
143394
143335
143239
143268
143292
143302
143339
143360
143350
143306
143345
143322
143322
143307
143276
143273
143363
143422
143429
143345
143364
143376
143357
143354
143343
143406
143394
143408
143428
143390
143409
143363
143325
143310
143340
143473
143525
143475
143476
143422
143421
143454
143384
143392
143411
143428
143446
143517
143502
143449
143478
143462
143373
143351
143400
143384
143457
143472
143455
143443
143509
143461
143433
143404
143400
143372
143370
143416
143430
143441
143430
143357
143324
143342
143433
143455
143510
143512
143496
143472
143500
143510
143460
143471
143400
143373
143462
143598
143572
143529
143537
143522
143450
143410
143406
143331
143296
143333
143285
143320
143429
143445
143423
143448
143383
143374
143349
143417
143458
143350
143347
143409
143381
143330
143299
143334
143291
143310
143298
143278
143389
143404
143308
143280
143260
143228
143236
143321
143304
143180
143242
143330
143251
143297
143225
143213
143240
143281
143287
143217
143282
143324
143227
143193
143111
143127
143179
143255
143401
143397
143331
143355
143339
143277
143240
143279
143277
143277
143287
143259
143271
143345
143360
143329
143293
143326
143315
143299
143352
143345
143350
143345
143276
143224
143224
143281
143313
143394
143401
143365
143399
143388
143314
143289
143264
143291
143308
143405
143475
143427
143400
143371
143370
143390
143332
143352
143358
143477
143453
143384
143384
143364
143387
143398
143393
143485
143439
143346
143267
143294
143467
143552
143503
143426
143370
143282
143252
143322
143386
143364
143422
143440
143389
143351
143328
143331
143304
143359
143392
143375
143405
143515
143444
143362
143350
143373
143367
143383
143443
143453
143464
143436
143316
143320
143251
143286
143303
143410
143432
143365
143424
143429
143383
143362
143285
143250
143250
143294
143393
143425
143485
143445
143434
143385
143253
143244
143247
143282
143385
143370
143392
143432
143420
143375
143327
143307
143318
143339
143376
143345
143417
143392
143342
143330
143294
143305
143315
143383
143431
143463
143490
143465
143392
143393
143349
143376
143375
143389
143425
143412
143400
143416
143360
143347
143303
143308
143288
143334
143403
143413
143443
143463
143379
143302
143271
143326
143282
143371
143517
143442
143464
143439
143418
143409
143283
143251
143330
143516
143631
143565
143515
143536
143508
143414
143340
143397
143417
143412
143413
143381
143414
143397
143410
143402
143383
143418
143399
143457
143464
143470
143463
143442
143441
143383
143367
143419
143397
143425
143442
143424
143519
143520
143522
143486
143392
143441
143426
143527
143546
143430
143465
143565
143515
143518
143454
143487
143477
143444
143445
143433
143458
143503
143465
143416
143340
143379
143420
143474
143513
143440
143489
143454
143446
143451
143438
143472
143491
143531
143492
143449
143444
143481
143475
143465
143400
143425
143452
143472
143508
143536
143541
143556
143537
143476
143425
143467
143490
143522
143529
143561
143613
143577
143579
143622
143584
143568
143598
143577
143617
143615
143613
143684
143641
143549
143375
143332
143273
143193
143165
143074
143158
143195
143223
143203
143162
143148
143183
143255
143348
143406
143452
143432
143444
143450
143450
143505
143531
143511
143529
143470
143482
143513
143533
143544
143491
143497
143566
143628
143661
143728
143730
143701
143633
143587
143560
143550
143515
143540
143567
143499
143527
143644
143641
143680
143681
143691
143662
143628
143667
143684
143660
143643
143621
143600
143565
143550
143533
143665
143772
143724
143717
143737
143735
143714
143632
143640
143561
143543
143609
143669
143746
143800
143773
143731
143728
143761
143797
143803
143810
143722
143750
143806
143805
143749

[算法提取后的结构化特征]
# 由 EcgFeatureExtractor.extract() + toPromptText() 在手机端重建
# 与手表端发给 DeepSeek 的提示词文本一致（DS 实际收到的数据）
# 注意: 用户 profile（年龄性别）未存入测量记录，手机端重建时为'未知'
#       助手如需年龄性别做医学判断，需用户单独提供

[用户属性]

[全局指标]
采样率:500Hz 时长:30.6s 总点数:15320
R波检测:30个 平均心率:63bpm 范围:53-78bpm
R波位置(样本索引):336,876,1453,1889,2357,2815,3269,3775,4245,4654,5179,5670,6226,6610,7093,7405,7567,8055,9623,10506,11015,11296,11945,12384,12867,13335,13515,14157,14600,15007
RR间期序列(ms，[*]为偏离均值>20%的异常间期，多为早搏/误检):1080 [1154*] 872 936 916 908 1012 940 818 1050 982 1112 768 966 [624*] [324*] 976 [1766*] 1018 [562*] [1298*] 878 966 936 [360*] [1284*] 886 814
RR差值序列(ms):74,-282,64,-20,-8,104,-72,-122,232,-68,130,-344,198,-342,-300,652,790,-748,-456,736,-420,88,-30,-576,924,-398,-72
SDNN:86.7ms RMSSD:135.6ms pNN50:68.4%
QRS宽度(本地估测,ms):53±13
PR间期(本地估测,ms):182±62
QT间期(本地估测,ms):437 QTc(Bazett):447ms QTc(Fridericia):444ms
R波平均振幅:0.36mV
R波极性:负向(负向提示导联反接/位置异常)
T/R振幅比:1.22(正常0.1-0.5，<0.1低平，>0.5高尖)
ST段偏移(本地估测,mV):-0.012(正常±0.05，>0.1抬高，<-0.1压低)
信号质量:1.00 良好

[节律判别特征]
R波可靠性:可信
RR变异系数:0.092(轻度不齐)
Poincaré散点形态:鱼雷形(轻度不齐)
短-长RR配对数(早搏代偿):2个

[逐秒分段]
时段(s)  R波  振幅范围(mV)  峰峰值(mV)  最大斜率(mV/s)  RMS(mV)
0.0-1.0  1  -1.76~1.22  2.99  106.00  0.93
1.0-2.0  1  -2.90~3.05  5.95  93.00  1.75
2.0-3.0  1  -2.35~1.69  4.04  103.00  1.07
3.0-4.0  1  -1.59~1.07  2.66  78.50  0.72
4.0-5.0  1  -0.88~1.13  2.01  93.00  0.56
5.0-6.0  1  -1.03~1.23  2.27  86.00  0.66
6.0-7.0  1  -1.55~0.91  2.46  98.50  0.71
7.0-8.0  1  -0.69~1.02  1.72  98.50  0.36
8.0-9.0  1  -0.59~0.61  1.20  103.00  0.30
9.0-10.0  1  -0.95~0.58  1.53  107.50  0.34
10.0-11.0  1  -0.43~0.31  0.74  103.50  0.13
11.0-12.0  1  -0.42~0.29  0.71  87.50  0.12
12.0-13.0  1  -0.45~0.41  0.86  85.50  0.13
13.0-14.0  1  -0.42~0.33  0.75  105.00  0.13
14.0-15.0  2  -0.40~0.43  0.83  88.00  0.15
15.0-16.0  1  -2.23~0.96  3.18  102.00  0.81
16.0-17.0  1  -1.37~2.97  4.33  102.50  1.22
17.0-18.0  0  -1.05~1.07  2.12  87.50  0.52  ← 本秒无R波(心率<60或代偿间隙)
18.0-19.0  0  -1.30~1.09  2.38  74.00  0.62  ← 本秒无R波(心率<60或代偿间隙)
19.0-20.0  1  -1.02~0.77  1.79  121.00  0.42
20.0-21.0  0  -0.95~0.33  1.28  86.00  0.25  ← 本秒无R波(心率<60或代偿间隙)
21.0-22.0  1  -0.43~0.45  0.88  80.50  0.12
22.0-23.0  2  -0.81~0.40  1.21  95.50  0.24
23.0-24.0  1  -0.32~0.39  0.71  90.00  0.12
24.0-25.0  1  -0.68~0.37  1.05  79.00  0.20
25.0-26.0  1  -0.42~0.58  1.00  87.00  0.20
26.0-27.0  1  -0.72~0.70  1.42  93.00  0.37
27.0-28.0  1  -0.73~0.63  1.36  85.00  0.32
28.0-29.0  1  -0.45~0.39  0.84  100.00  0.20
29.0-30.0  1  -0.36~0.29  0.66  73.00  0.11
逐秒RMS:0.932,1.753,1.073,0.723,0.558,0.664,0.710,0.360,0.297,0.336,0.133,0.120,0.131,0.131,0.147,0.815,1.215,0.516,0.619,0.418,0.255,0.117,0.239,0.122,0.195,0.202,0.367,0.324,0.197,0.111

[AI 解读]
# DeepSeek 返回的原始 JSON（未清洗，可能含 markdown 代码块包裹）
{
  "平均心率": 63,
  "心率范围": "55-73 bpm",
  "心率稳定性": "轻度波动",
  "心率置信度": "高",
  "SDNN_ms": 86.7,
  "RMSSD_ms": 135.6,
  "pNN50_pct": 68.4,
  "HRV解读": "HRV指标偏高,反映年轻人群自主神经副交感张力活跃,正常生理现象。",
  "HRV置信度": "高",
  "节律判断": "窦性心律不齐",
  "RR间期规律性": "轻度不齐",
  "早搏提示": [],
  "节律置信度": "高",
  "PR间期_ms": 182,
  "PR判断": "正常范围(120-200ms),但误差较大,仅供参考",
  "PR置信度": "中",
  "QRS宽度_ms": 53,
  "QRS判断": "低于正常范围(80-120ms),可能为算法估测误差",
  "QRS置信度": "低",
  "QTc_ms": 447,
  "QTcFridericia_ms": 444,
  "QTc判断": "正常范围",
  "QTc置信度": "高",
  "间期数据来源": "本设备本地算法估测,误差约±15ms",
  "信号质量": "良好",
  "噪声段": [],
  "异常提示": ["R波极性负向,提示导联反接或位置异常", "T/R振幅比1.22,提示T波高尖,建议复查"],
  "综合解读": "18岁男性,腕表单导联ECG,信号质量良好。平均心率63bpm,轻度不齐,考虑窦性心律不齐。HRV指标偏高,符合年轻人群自主神经活跃特征。R波极性负向,可能为导联反接；T/R比增高,需注意T波高尖可能。QTc正常。QRS宽度估测偏窄,可能为算法误差。",
  "健康建议": ["建议复查标准12导联心电图以确认导联极性和T波形态", "如有心悸等症状请及时就医"],
  "免责声明": "本报告基于腕表单导联ECG统计特征生成,间期为本地算法估测,仅供健康参考,不作为医疗诊断依据。如有不适请就医复查标准12导联心电图。"
}
