========== ECG 算法诊断包 ==========
测量时间: 2026-07-18 22:43:12
测量时间戳:1784385792278
采样率:500 Hz
数据点数:15370
时长:30.7 秒
分析方法:ds_flash_balanced_raw
算法版本:v8
Tavily状态:未配置 Tavily Key（均衡/Max 档可选联网，本次未检索）

[原始 ECG 数据]
# 单位: ADC 原始整数值（手表 Samsung ECG SDK 返回值，约 14-17.5 万，含 DC 偏移）
# 重要: 不是 mV×1000！R 波振幅在 ADC 中表现为相对基线的偏移（±100-500），
#       不是绝对值。助手复现算法时必须先去 DC（减中位数/滑动窗口均值），
#       不能直接把这些数字当 mV 解读。
# 采样率: 500 Hz，连续采样，无降采样无压缩
# 用途: 助手据此复现本地算法行为（基线漂移/噪声段/R波检测）
# 格式: 每行一个数值，行号=采样点索引（第1行=索引0，即 t=0.000s）
# 增益校准: 应用层未做 ADC→mV 转换；如需 mV，需自行用基线/中位数去 DC 后
#           视为相对振幅（无绝对 mV 标定，因手表未公布增益系数）
175504
175478
175519
175571
175556
175457
175494
175600
175670
175661
175596
175614
175609
175668
175688
175580
175616
175665
175685
175663
175679
175646
175626
175638
175680
175605
175712
175768
175859
175800
175672
175642
175618
175549
175492
175645
175988
175899
175775
175816
175766
175748
175801
175769
175727
175667
175749
175787
175799
175749
175730
175757
175769
175702
175691
175701
175806
175844
175779
175819
175819
175710
175657
175685
175670
175646
175706
175766
175744
175824
175719
175643
175607
175664
175675
175652
175628
175702
175715
175640
175576
175626
175688
175632
175649
175659
175748
175764
175720
175750
175697
175675
175714
175705
175638
175559
175650
175749
175831
175798
175755
175741
175755
175689
175736
175702
175735
175805
175763
175765
175785
175861
175813
175758
175758
175664
175636
175709
175824
175795
175826
175938
175908
175847
175815
175746
175806
175890
175946
175968
175909
175837
175883
175916
175920
175910
175976
176026
176074
175977
175841
175890
175870
175900
175972
175967
176033
176094
176122
176114
175990
175974
176010
176045
176012
176019
176055
176051
176169
176251
176174
176157
176082
176009
176018
176017
176023
176140
176188
176154
176123
176155
176217
176095
176075
176101
176157
176285
176278
176203
176175
176190
176205
176267
176313
176200
176195
176245
176323
176323
176258
176307
176252
176232
176305
176359
176412
176388
176390
176342
176285
176337
176318
176376
176322
176326
176357
176342
176357
176390
176328
176350
176425
176473
176312
176319
176397
176427
176447
176483
176419
176371
176383
176342
176381
176442
176352
176293
176392
176470
176472
176543
176563
176479
176425
176418
176526
176606
176571
176574
176514
176605
176520
176461
176470
176455
176484
176575
176629
176644
176526
176564
176533
176481
176513
176529
176598
176656
176622
176586
176525
176520
176510
176557
176599
176533
176575
176641
176655
176650
176612
176719
176717
176575
176527
176598
176679
176676
176700
176735
176706
176717
176738
176746
176719
176673
176768
176687
176643
176704
176766
176916
176900
176828
176711
176698
176721
176715
176743
176725
176749
176657
176582
176661
176781
176672
176847
176903
176833
176854
176788
176808
176792
176778
176794
176753
176778
176743
176770
176865
176802
176821
176793
176845
176782
176669
176700
176752
176835
176871
176799
176744
176715
176755
176789
176746
176824
176831
176834
176823
176808
176817
176805
176715
176655
176675
176719
176817
176858
176787
176698
176728
176726
176728
176738
176726
176857
176940
176891
176929
176888
176915
176875
176880
176975
176745
176799
176922
176992
177021
176975
176955
176952
176946
177053
177099
177113
177204
177198
177191
177157
177160
177157
177113
176989
176831
176800
176790
176748
176703
176650
176726
176720
176694
176690
176605
176674
176762
176807
176891
176873
176891
176946
176899
176837
176865
176948
177122
177154
177200
177156
177141
177090
177071
177037
177095
177082
177123
177134
177103
177095
177148
177110
177083
177109
177129
177171
177226
177197
177208
177242
177230
177109
177099
177159
177167
177235
177228
177303
177262
177176
177265
177271
177211
177210
177153
177185
177248
177367
177358
177289
177319
177318
177290
177234
177250
177261
177275
177328
177275
177221
177418
177428
177423
177423
177399
177454
177401
177340
177323
177289
177374
177489
177433
177401
177418
177517
177523
177612
177604
177528
177558
177556
177539
177533
177422
177510
177564
177597
177617
177591
177661
177594
177561
177547
177521
177547
177624
177638
177623
177560
177593
177638
177700
177711
177650
177652
177587
177589
177608
177575
177665
177783
177754
177651
177628
177698
177770
177679
177637
177498
177566
177610
177558
177485
177462
177591
177601
177568
177586
177573
177632
177608
177583
177536
177478
177489
177481
177486
177540
177517
177451
177490
177502
177496
177485
177575
177615
177670
177686
177637
177655
177633
177601
177546
177500
177552
177579
177646
177696
177605
177575
177664
177540
177564
177596
177609
177647
177585
177526
177548
177646
177710
177615
177605
177593
177643
177649
177654
177602
177537
177602
177624
177600
177673
177658
177664
177649
177613
177678
177605
177588
177616
177704
177733
177647
177646
177647
177724
177764
177682
177729
177690
177653
177649
177608
177664
177671
177623
177671
177728
177766
177617
177573
177598
177599
177645
177691
177703
177793
177754
177687
177682
177733
177761
177737
177757
177741
177762
177738
177704
177734
177689
177674
177632
177610
177681
177789
177867
177873
177803
177857
177852
177795
177747
177734
177865
177884
177873
177902
177901
177805
177710
177688
177753
177775
177861
177938
177866
177902
177782
177873
177911
177939
177892
177783
177880
177843
177844
177856
177836
177936
178054
177963
177941
177861
177865
177881
177932
178014
177983
177961
177944
177869
177893
177882
177987
177931
177876
177878
177856
177900
177918
177881
177774
177779
177921
178026
178039
177995
177948
178007
178081
178075
178101
178058
177979
177939
177972
178057
178041
178088
178111
178018
177994
177959
177989
178056
178065
178050
178003
178014
178060
178037
178088
178112
178159
178132
178065
178036
178024
178080
178201
178174
178166
178198
178212
178141
178129
178226
178195
178251
178128
178156
178132
178143
178205
178134
178184
178207
178199
178269
178290
178173
178138
178087
178165
178156
178234
178348
178301
178285
178299
178254
178222
178155
178186
178172
178234
178335
178385
178391
178414
178394
178319
178300
178306
178375
178479
178371
178328
178322
178322
178368
178345
178268
178238
178326
178443
178424
178403
178392
178372
178313
178309
178307
178317
178296
178288
178363
178377
178323
178314
178397
178363
178415
178545
178463
178458
178390
178420
178442
178416
178412
178408
178277
178337
178379
178387
178490
178433
178422
178475
178417
178361
178383
178510
178455
178381
178398
178440
178468
178512
178540
178496
178428
178533
178495
178525
178539
178520
178527
178503
178586
178685
178730
178811
178866
178850
178828
178776
178752
178635
178507
178457
178336
178287
178202
178137
178230
178101
178161
178219
178191
178110
178049
178110
178234
178207
178236
178311
178439
178518
178544
178494
178501
178515
178543
178448
178450
178434
178481
178461
178474
178517
178412
178504
178573
178632
178669
178527
178551
178624
178517
178543
178430
178296
178354
178496
178626
178571
178477
178518
178530
178532
178502
178517
178510
178553
178605
178624
178674
178581
178526
178585
178462
178448
178578
178651
178756
178695
178727
178738
178753
178662
178604
178581
178562
178635
178597
178591
178659
178597
178643
178662
178581
178649
178651
178637
178769
178704
178685
178661
178635
178667
178560
178644
178701
178655
178710
178758
178853
178789
178823
178734
178680
178675
178690
178717
178689
178721
178796
178899
178994
178859
178762
178822
178817
178776
178760
178739
178769
178755
178798
178821
178673
178708
178776
178742
178758
178775
178778
178699
178698
178643
178689
178781
178716
178710
178640
178629
178797
178720
178639
178531
178449
178546
178619
178478
178424
178515
178661
178722
178756
178667
178619
178680
178701
178634
178653
178659
178634
178629
178610
178515
178428
178503
178548
178499
178590
178515
178564
178558
178536
178539
178552
178607
178570
178498
178446
178410
178480
178570
178620
178689
178640
178496
178545
178560
178567
178536
178633
178547
178565
178703
178660
178570
178572
178630
178654
178547
178647
178702
178714
178662
178580
178585
178602
178571
178571
178566
178640
178666
178638
178625
178536
178547
178516
178526
178590
178550
178651
178590
178597
178540
178503
178537
178558
178619
178666
178743
178746
178669
178640
178615
178578
178530
178513
178612
178562
178657
178632
178562
178564
178592
178510
178487
178523
178513
178484
178510
178539
178583
178642
178581
178495
178519
178597
178665
178591
178451
178523
178563
178531
178497
178443
178391
178475
178568
178590
178573
178644
178692
178639
178571
178506
178549
178524
178471
178469
178471
178542
178568
178651
178661
178581
178595
178572
178594
178525
178588
178621
178592
178550
178580
178456
178514
178504
178479
178483
178495
178547
178591
178650
178581
178527
178552
178590
178594
178545
178515
178581
178595
178616
178689
178596
178602
178650
178598
178578
178619
178680
178688
178594
178552
178476
178549
178476
178474
178593
178636
178706
178629
178587
178532
178417
178531
178632
178675
178639
178585
178637
178686
178816
178766
178646
178619
178653
178736
178745
178628
178691
178699
178646
178605
178601
178733
178702
178698
178717
178712
178659
178726
178768
178712
178678
178631
178603
178641
178653
178630
178588
178634
178699
178663
178582
178616
178670
178707
178681
178634
178578
178642
178737
178775
178730
178700
178676
178652
178735
178746
178750
178776
178732
178697
178563
178607
178646
178720
178673
178641
178624
178616
178675
178731
178650
178612
178635
178665
178697
178734
178777
178778
178743
178754
178672
178666
178726
178657
178527
178549
178639
178691
178665
178708
178661
178677
178688
178620
178556
178610
178775
178721
178741
178694
178617
178634
178650
178740
178700
178672
178779
178775
178796
178836
178847
178914
178936
178906
178968
178970
178981
178999
179020
178939
178766
178686
178601
178559
178481
178485
178493
178497
178330
178363
178390
178448
178475
178469
178458
178498
178565
178645
178682
178663
178625
178637
178620
178649
178674
178652
178755
178824
178735
178737
178698
178729
178747
178685
178709
178681
178706
178798
178810
178845
178766
178785
178702
178677
178745
178779
178850
178836
178784
178832
178853
178822
178863
178940
178915
178837
178868
178913
178863
178833
178808
178725
178830
178910
178870
178782
178806
178846
178867
178866
178826
178858
178844
178826
178905
178880
178877
178889
178863
178870
178838
178880
178890
178891
178857
178829
178964
179089
178997
178997
178985
179003
178976
178944
178981
178984
179077
179087
179077
179003
178966
178968
178945
178939
178954
178993
178991
179022
179075
179039
179023
179088
179120
179075
179007
178976
178970
179010
179013
179097
179124
179115
179088
179081
179043
178945
178977
179032
179101
179086
179059
179096
179033
179071
179022
178948
178997
178929
178915
178946
178874
178944
178940
178905
178940
178835
178867
178938
178926
178968
178939
178957
178848
178894
178956
178890
178927
178948
178916
178951
178906
178894
178899
178940
178951
178866
178939
178969
178908
178904
178895
178886
178909
178940
178941
178922
178956
179008
178929
178872
178886
178961
178976
178898
178912
178892
178918
178952
178993
179048
178980
178900
178903
178907
178970
178908
179023
179052
179061
179002
178999
179011
178976
179016
179064
178941
179048
179007
179003
179064
179099
179060
178986
178949
178944
178961
179134
179183
179126
179073
178953
178954
178999
179048
179099
179071
179105
179073
179122
179053
178906
178859
178948
178970
179038
179048
179183
179138
179151
179127
178997
178972
178975
178987
179079
178980
179031
179106
179095
179106
179089
179167
179254
179155
179188
179141
179127
179091
179044
179095
179024
179035
179056
179081
179033
178965
179035
179015
179026
179141
179204
179195
179173
179140
179072
179038
179108
179116
179219
179233
179188
179174
179116
179051
179106
179009
179146
179235
179312
179255
179118
179094
179200
179203
179154
179102
179159
179217
179242
179170
179101
179079
179039
179012
179111
179205
179315
179309
179290
179252
179179
179211
179140
179132
179162
179181
179167
179183
179151
179139
179162
179244
179364
179287
179192
179143
179203
179248
179236
179225
179213
179228
179214
179177
179227
179203
179210
179225
179285
179286
179184
179155
179148
179174
179187
179156
179262
179318
179343
179318
179351
179333
179261
179237
179169
179192
179234
179241
179373
179361
179307
179205
179149
179179
179337
179324
179406
179388
179373
179329
179293
179406
179425
179389
179390
179257
179267
179323
179385
179405
179378
179383
179365
179322
179311
179249
179328
179410
179411
179410
179307
179324
179356
179330
179330
179318
179342
179312
179337
179295
179280
179361
179392
179442
179359
179261
179313
179320
179286
179303
179308
179315
179284
179302
179392
179340
179343
179374
179402
179435
179411
179359
179345
179374
179450
179413
179462
179491
179401
179384
179351
179361
179385
179467
179502
179481
179549
179563
179581
179651
179629
179704
179793
179767
179699
179672
179702
179623
179601
179536
179331
179215
179173
179020
179013
179038
179059
179105
179208
179124
179085
179170
179200
179162
179234
179259
179274
179269
179409
179493
179510
179524
179525
179542
179521
179428
179377
179374
179431
179457
179487
179468
179455
179548
179559
179483
179539
179444
179437
179505
179560
179584
179559
179535
179503
179492
179477
179597
179627
179627
179573
179594
179601
179607
179563
179545
179570
179614
179568
179591
179577
179569
179575
179591
179642
179605
179642
179707
179760
179693
179644
179642
179636
179611
179615
179617
179665
179703
179806
179790
179710
179760
179763
179789
179768
179700
179665
179723
179727
179672
179675
179805
179934
179854
179778
179752
179801
179906
179932
179893
179814
179844
179827
179819
179805
179789
179870
179877
179895
179810
179847
179919
179940
179886
179870
179837
179805
179858
179857
179868
179839
179859
179845
179913
179984
179878
179951
179932
179943
179940
179916
179872
179828
179797
179807
179746
179759
179843
179842
179837
179774
179752
179676
179690
179702
179698
179768
179763
179791
179728
179626
179747
179723
179683
179744
179672
179724
179729
179763
179768
179657
179617
179652
179730
179721
179678
179650
179617
179728
179787
179776
179792
179779
179802
179770
179707
179715
179687
179726
179779
179693
179670
179697
179713
179705
179683
179677
179696
179659
179754
179880
179881
179801
179738
179767
179772
179775
179766
179780
179770
179678
179788
179747
179749
179723
179709
179754
179783
179770
179849
179826
179731
179672
179700
179723
179642
179709
179761
179878
179902
179857
179811
179756
179690
179692
179660
179678
179785
179840
179830
179753
179752
179751
179737
179719
179666
179678
179695
179765
179850
179830
179825
179814
179790
179786
179711
179738
179813
179838
179811
179801
179850
179758
179752
179794
179744
179790
179812
179819
179850
179838
179882
179838
179801
179769
179751
179796
179807
179842
179844
179846
179887
179872
179823
179809
179767
179750
179731
179736
179835
179967
179989
179987
179966
179910
179835
179885
179961
180001
179981
179930
179862
179885
179885
179845
179813
179884
179918
179950
179943
179936
179942
179935
179902
179872
179866
179868
179924
179965
179973
179971
179965
179916
179896
179928
179913
179880
179931
179942
179924
179849
179882
179928
179967
180015
180023
180153
180013
180036
180094
180090
180020
179972
179992
179970
179917
179922
179849
179919
180116
180128
180079
179972
179978
179951
179996
180028
180015
180033
180038
179960
179975
179986
179956
180054
180060
180085
180075
180050
180048
179945
179991
180050
180066
180061
180016
180047
180062
180078
180053
180100
180195
180171
180120
180148
180135
180143
180113
180118
180114
180102
180112
180178
180142
180128
180176
180137
180145
180237
180204
180172
180213
180209
180180
180140
180009
180033
180065
180184
180278
180225
180195
180116
180110
180135
180155
180209
180241
180306
180206
180194
180217
180172
180136
180198
180109
180101
180190
180138
180138
180211
180271
180269
180175
180132
180151
180177
180160
180144
180183
180255
180261
180211
180244
180141
180149
180247
180244
180267
180235
180215
180277
180351
180405
180426
180408
180482
180496
180520
180613
180584
180526
180445
180475
180470
180359
180299
180308
180200
180076
179961
179994
180000
179906
179875
179824
179895
179993
180074
180111
180063
180107
180139
180165
180200
180174
180258
180242
180194
180269
180271
180345
180329
180332
180273
180294
180345
180297
180305
180336
180359
180396
180337
180321
180310
180244
180297
180384
180456
180455
180434
180405
180369
180369
180350
180338
180366
180437
180530
180475
180407
180455
180439
180485
180444
180382
180396
180379
180405
180439
180485
180571
180569
180527
180484
180431
180403
180419
180445
180434
180506
180634
180552
180478
180514
180463
180551
180587
180530
180509
180506
180534
180506
180499
180492
180481
180542
180586
180641
180651
180610
180683
180723
180717
180644
180589
180725
180679
180628
180722
180644
180659
180740
180724
180683
180585
180597
180664
180663
180730
180810
180854
180859
180809
180709
180687
180615
180668
180699
180642
180658
180678
180721
180757
180842
180785
180737
180774
180702
180704
180732
180753
180766
180732
180728
180628
180582
180622
180640
180705
180682
180721
180770
180762
180735
180589
180650
180741
180711
180678
180683
180706
180657
180597
180658
180650
180741
180752
180731
180714
180672
180726
180704
180650
180593
180650
180681
180691
180778
180806
180740
180828
180865
180820
180726
180671
180729
180674
180633
180703
180709
180823
180938
180869
180807
180754
180771
180791
180767
180775
180808
180769
180799
180842
180839
180798
180844
180833
180806
180826
180779
180820
180840
180837
180850
180833
180782
180743
180820
180860
180827
180835
180785
180763
180843
180845
180890
180946
180936
180887
180869
180905
180954
180961
180919
180871
180878
180870
180846
180828
180885
181015
181005
181034
180902
180818
180823
180853
180896
180946
180856
180891
180879
180743
180745
180756
180862
180946
180992
180948
180878
180972
181008
180974
180876
180879
180931
180952
180955
180920
180920
180991
180995
180983
180963
180908
180995
180991
180975
180970
180873
180941
181059
181045
181043
180990
180985
180903
180918
180992
181048
181061
180981
180992
180910
180905
180965
181031
181093
181136
181078
181098
181061
181052
181005
180901
180825
180898
181007
181115
181127
181159
181100
181069
181076
181026
181048
180953
180927
180978
181048
181206
181165
181152
181134
181091
181061
181046
181028
181099
181150
181183
181194
181183
181167
181063
181027
181053
181052
181101
181081
181108
181104
181075
181049
181067
181139
181128
181094
181111
181199
181290
181224
181210
181125
181019
181079
181138
181173
181201
181158
181285
181247
181274
181211
181177
181227
181169
181079
181161
181133
181184
181189
181138
181148
181133
181181
181296
181237
181222
181278
181237
181273
181216
181181
181161
181192
181241
181258
181255
181260
181291
181300
181267
181207
181207
181235
181304
181380
181404
181240
181297
181281
181282
181245
181247
181246
181281
181260
181245
181170
181149
181245
181299
181325
181241
181218
181170
181266
181360
181296
181326
181389
181394
181392
181241
181153
181137
181193
181237
181171
181235
181284
181328
181383
181277
181243
181239
181215
181247
181249
181233
181241
181232
181318
181274
181256
181257
181282
181294
181198
181228
181234
181268
181452
181402
181431
181406
181399
181409
181396
181491
181481
181456
181480
181488
181534
181538
181498
181464
181396
181319
181343
181133
181110
180975
180884
180871
180895
180905
180834
180888
180980
180998
181018
181024
181194
181304
181338
181318
181215
181258
181310
181319
181252
181210
181258
181273
181302
181346
181290
181361
181343
181317
181291
181277
181363
181413
181398
181440
181393
181456
181366
181420
181449
181373
181415
181415
181384
181421
181424
181484
181472
181514
181355
181394
181497
181422
181389
181399
181396
181493
181561
181628
181627
181533
181555
181550
181485
181500
181495
181577
181569
181546
181550
181461
181426
181410
181458
181614
181640
181668
181732
181703
181650
181533
181594
181698
181722
181601
181599
181627
181630
181696
181705
181699
181812
181720
181640
181635
181664
181756
181786
181770
181738
181616
181616
181672
181650
181626
181655
181774
181770
181763
181809
181729
181738
181784
181744
181714
181708
181773
181827
181870
181765
181684
181782
181793
181703
181690
181768
181773
181837
181818
181786
181733
181710
181692
181652
181623
181607
181612
181588
181629
181632
181576
181541
181566
181627
181603
181598
181726
181830
181630
181611
181556
181591
181533
181558
181599
181657
181775
181705
181652
181666
181655
181677
181630
181632
181623
181616
181677
181731
181694
181727
181684
181674
181760
181729
181709
181623
181631
181649
181612
181663
181641
181654
181734
181727
181653
181649
181667
181631
181733
181732
181707
181768
181876
181732
181739
181748
181773
181769
181779
181780
181747
181755
181788
181760
181809
181779
181785
181801
181851
181752
181745
181773
181817
181830
181775
181707
181724
181782
181883
181895
181823
181806
181790
181822
181762
181762
181889
181902
181788
181707
181706
181803
181817
181819
181754
181787
181854
181842
181879
181887
181845
181850
181867
181892
181905
181858
181930
181859
181819
181845
181830
181866
181880
181815
181820
181845
181900
181912
181947
181945
181856
181875
181796
181792
181756
181751
181823
181877
181895
181888
181839
181887
181925
181795
181734
181771
181900
181964
181889
181889
181883
181881
181799
181783
181882
181875
181895
181889
181902
181928
181782
181820
181864
181832
181823
181832
181931
181874
181836
181852
181810
181825
181859
181826
181800
181717
181783
181879
181882
181765
181796
181899
181901
181853
181864
181807
181834
181854
181913
181858
181823
181817
181831
181848
181851
181782
181782
181886
181968
181991
181903
181871
181869
181829
181826
181899
181987
181915
181835
181845
181857
181832
181757
181855
181923
181903
181937
181949
181954
181948
181850
181816
181866
181828
181914
181914
181971
182098
182132
181929
181882
181960
181979
182006
181973
181922
182031
182059
181996
181974
181915
181906
181909
181870
181931
181925
181969
182007
182078
182026
181965
181929
181929
181883
181888
181932
182037
182066
182169
182095
181915
181897
181895
181866
181867
181958
182075
182076
182129
182056
181983
182077
181987
181929
181885
181809
181870
182035
182050
182034
181955
181906
181938
181944
181989
182023
182079
182103
182066
182052
181969
181967
181941
181964
182042
182073
182135
182149
182151
182110
182153
182239
182304
182335
182268
182197
182223
182222
182211
182205
182216
182068
182007
181999
181961
181809
181756
181766
181715
181676
181691
181742
181693
181727
181862
181874
181873
181896
181913
181915
181927
182025
181997
182075
182114
182092
182093
182106
182164
182142
182070
182058
182076
182084
182115
182010
182057
182101
182159
182241
182236
182213
182182
182139
182093
182101
182199
182266
182267
182166
182146
182189
182221
182108
182164
182131
182159
182221
182249
182305
182258
182256
182263
182207
182186
182140
182228
182318
182379
182381
182316
182315
182338
182329
182318
182260
182236
182296
182304
182277
182273
182336
182345
182274
182225
182180
182253
182391
182373
182318
182286
182370
182403
182422
182403
182406
182395
182396
182398
182430
182384
182399
182430
182375
182372
182408
182398
182435
182449
182457
182428
182496
182511
182502
182449
182422
182490
182519
182529
182492
182391
182422
182456
182434
182455
182441
182475
182505
182536
182469
182469
182474
182369
182271
182328
182341
182429
182482
182550
182549
182505
182498
182457
182382
182367
182382
182320
182362
182383
182501
182419
182373
182327
182277
182282
182224
182306
182370
182389
182415
182369
182331
182332
182299
182345
182372
182415
182423
182424
182429
182341
182337
182334
182324
182290
182235
182308
182451
182482
182496
182449
182395
182420
182432
182361
182352
182399
182499
182464
182462
182435
182448
182403
182365
182334
182348
182303
182402
182520
182558
182541
182543
182471
182475
182450
182423
182510
182545
182521
182476
182411
182427
182511
182560
182515
182444
182473
182478
182486
182525
182526
182606
182617
182580
182514
182551
182584
182608
182623
182635
182500
182524
182467
182516
182563
182591
182642
182682
182700
182657
182581
182590
182534
182489
182467
182451
182588
182643
182634
182676
182563
182610
182649
182608
182628
182525
182522
182589
182639
182672
182575
182589
182531
182530
182562
182540
182630
182764
182827
182760
182657
182749
182684
182613
182615
182577
182670
182659
182635
182664
182639
182701
182657
182598
182576
182602
182710
182720
182672
182703
182694
182732
182690
182694
182687
182621
182668
182759
182784
182736
182678
182773
182751
182724
182708
182615
182687
182672
182754
182767
182729
182757
182772
182768
182748
182703
182709
182745
182793
182801
182712
182765
182795
182767
182813
182788
182806
182746
182779
182826
182737
182751
182829
182779
182819
182823
182830
182888
182932
182890
182797
182787
182842
182888
182925
182946
182981
182961
183008
182981
182889
182906
182910
182839
182786
182834
182881
182886
182975
183037
183033
183075
183028
182987
182947
182853
182870
182904
183000
183036
183029
183078
182992
182913
182942
182987
183060
183113
183136
183171
183095
183016
182944
182937
183073
183116
183149
183092
183068
183080
182992
183066
183125
183118
183046
182930
183041
183040
183046
183088
183074
183060
183040
183049
183011
183020
183050
183182
183158
183123
183158
183131
183136
183080
183094
183128
183198
183194
183166
183173
183104
183125
183128
183101
183153
183190
183262
183238
183294
183302
183258
183340
183383
183392
183455
183378
183462
183457
183449
183437
183397
183434
183381
183334
183318
183219
183111
183065
183020
182860
182786
182847
182859
182911
182950
182934
182997
183073
183157
183196
183183
183316
183360
183272
183279
183166
183199
183258
183253
183323
183423
183401
183402
183341
183399
183375
183283
183306
183331
183432
183443
183476
183452
183393
183370
183409
183467
183519
183557
183539
183470
183488
183528
183517
183502
183389
183421
183420
183483
183586
183520
183603
183620
183590
183595
183588
183663
183672
183586
183551
183524
183591
183587
183499
183507
183467
183592
183651
183618
183662
183629
183673
183669
183616
183643
183585
183577
183609
183655
183738
183741
183776
183764
183729
183759
183694
183759
183763
183836
183820
183769
183786
183781
183797
183796
183758
183775
183812
183880
183840
183748
183795
183826
183812
183797
183770
183873
183752
183760
183836
183850
183968
183969
183952
183939
183839
183828
183893
183928
183874
183854
183849
183790
183807
183833
183815
183765
183825
183808
183806
183732
183806
183848
183822
183783
183708
183679
183698
183725
183739
183795
183780
183802
183766
183759
183753
183753
183761
183735
183797
183807
183799
183818
183865
183746
183668
183627
183583
183654
183738
183786
183869
183779
183723
183713
183650
183672
183735
183758
183762
183704
183689
183632
183625
183727
183805
183815
183807
183814
183754
183728
183692
183701
183705
183705
183655
183655
183708
183767
183817
183702
183778
183771
183702
183643
183618
183611
183673
183742
183754
183737
183759
183803
183800
183694
183621
183589
183641
183693
183712
183673
183645
183641
183637
183675
183634
183665
183721
183722
183673
183701
183749
183676
183632
183637
183601
183689
183668
183625
183667
183596
183649
183681
183691
183550
183506
183545
183520
183542
183597
183571
183583
183585
183584
183584
183574
183552
183567
183580
183601
183529
183499
183514
183598
183608
183478
183499
183528
183495
183492
183426
183458
183486
183518
183458
183388
183385
183393
183496
183512
183455
183483
183414
183346
183388
183353
183337
183318
183378
183399
183386
183484
183484
183462
183428
183371
183355
183376
183349
183369
183385
183352
183341
183354
183364
183346
183280
183239
183297
183321
183298
183328
183334
183288
183278
183238
183233
183221
183265
183187
183139
183147
183176
183231
183252
183203
183286
183353
183182
183214
183232
183228
183211
183226
183232
183199
183206
183134
183135
183179
183213
183303
183217
183190
183172
183117
183090
183113
183053
183110
183045
183055
183151
183224
183211
183045
182993
182990
183005
182985
183123
183213
183196
183179
183176
183097
183069
183097
183180
183140
183079
183038
183001
182990
183036
182937
183033
183136
183040
183052
183014
183014
182963
182916
182936
182884
182845
182928
182978
182948
182950
182926
182917
183001
183032
182880
182816
182883
182877
182874
182860
182873
182852
182850
182922
182858
182831
182871
182822
182768
182791
182852
182795
182778
182748
182691
182745
182758
182827
182818
182745
182779
182759
182734
182700
182670
182698
182792
182829
182948
182929
183005
182999
182944
182931
182847
182838
182856
182923
182807
182758
182764
182633
182502
182445
182379
182449
182328
182258
182272
182238
182292
182281
182312
182322
182299
182265
182286
182338
182481
182567
182614
182620
182441
182458
182369
182362
182442
182487
182551
182540
182559
182547
182482
182433
182352
182385
182397
182432
182475
182465
182543
182514
182543
182591
182516
182385
182412
182463
182533
182398
182376
182432
182410
182433
182390
182393
182417
182413
182445
182439
182426
182431
182436
182415
182307
182284
182287
182365
182444
182429
182452
182444
182377
182342
182257
182279
182301
182326
182382
182349
182318
182355
182373
182388
182210
182267
182333
182366
182323
182293
182316
182355
182405
182385
182366
182473
182434
182337
182300
182289
182378
182429
182410
182386
182415
182443
182378
182417
182385
182372
182382
182420
182353
182355
182296
182310
182316
182301
182325
182353
182402
182297
182328
182382
182279
182267
182271
182233
182285
182317
182316
182318
182301
182213
182114
182151
182208
182247
182245
182241
182263
182290
182232
182167
182078
182090
182164
182098
182039
182078
182122
182132
182184
182207
182092
182082
182086
182081
182058
182003
182098
182159
182121
182062
181922
182006
182059
182075
182045
182114
182174
182102
182092
182067
182038
182041
182039
182022
182026
182029
182099
182067
182031
182048
182010
182003
182003
181986
181974
181932
181981
181986
182061
182133
182073
182049
182031
182007
182001
181988
182064
182063
182072
182063
182052
182041
181943
181970
181979
181935
181970
181984
181985
182042
182062
182041
182018
182092
182083
181927
181948
181983
181983
181981
181919
181953
181953
181986
182050
182027
181996
182043
182076
182010
181932
181912
181941
181979
181989
181953
182009
181956
181986
182026
182097
182068
181953
181955
181850
181852
181886
181914
181923
181905
181900
181962
181923
181864
181910
181887
181962
182036
182064
182006
181923
181977
181943
181945
181879
181876
181932
181999
182018
182009
181922
181925
181892
181896
181850
181904
181982
182009
181926
181899
181842
181914
181936
181845
181745
181764
181800
181833
181816
181887
181909
181926
181937
181858
181813
181795
181796
181788
181789
181903
181912
181847
181781
181791
181832
181823
181915
181875
181831
181814
181735
181743
181764
181757
181742
181755
181828
181880
181850
181749
181701
181804
181822
181727
181789
181779
181792
181811
181698
181640
181616
181574
181660
181795
181807
181801
181859
181880
181804
181743
181711
181733
181736
181760
181776
181698
181754
181796
181752
181760
181725
181738
181747
181726
181806
181779
181820
181837
181799
181764
181698
181700
181738
181761
181730
181650
181678
181733
181695
181678
181680
181599
181648
181649
181677
181702
181730
181774
181754
181686
181589
181684
181688
181622
181611
181547
181649
181720
181674
181649
181639
181693
181663
181708
181676
181573
181588
181598
181684
181728
181577
181634
181609
181567
181545
181506
181584
181631
181629
181798
181788
181806
181769
181742
181724
181816
181907
181885
181858
181926
181805
181744
181707
181790
181721
181599
181668
181687
181622
181497
181370
181328
181290
181247
181242
181134
181218
181278
181382
181478
181393
181425
181447
181393
181403
181366
181431
181513
181587
181586
181605
181598
181574
181628
181555
181530
181568
181548
181543
181596
181551
181577
181574
181575
181593
181554
181575
181589
181635
181699
181632
181582
181565
181625
181626
181533
181577
181641
181594
181571
181516
181557
181582
181596
181651
181602
181619
181615
181633
181592
181550
181628
181600
181616
181657
181662
181696
181686
181677
181660
181578
181599
181587
181517
181533
181615
181613
181721
181726
181671
181615
181613
181692
181782
181727
181663
181713
181687
181719
181772
181752
181683
181651
181652
181685
181665
181790
181914
181866
181849
181823
181771
181754
181683
181711
181800
181864
181863
181846
181797
181726
181794
181746
181732
181763
181708
181686
181748
181841
181923
181928
181916
181814
181717
181709
181694
181760
181852
181869
181847
181770
181736
181666
181687
181652
181664
181791
181796
181732
181750
181728
181698
181648
181638
181664
181552
181595
181660
181684
181682
181649
181690
181686
181624
181629
181590
181648
181713
181746
181707
181631
181581
181564
181554
181583
181511
181622
181755
181802
181766
181670
181662
181658
181735
181785
181670
181620
181662
181689
181674
181644
181703
181691
181641
181577
181559
181599
181742
181712
181739
181768
181739
181703
181633
181604
181572
181642
181829
181840
181762
181674
181681
181763
181780
181755
181729
181761
181752
181735
181713
181687
181713
181756
181751
181707
181713
181747
181713
181695
181708
181639
181734
181808
181802
181792
181715
181779
181802
181714
181761
181716
181732
181778
181767
181777
181642
181639
181698
181749
181833
181778
181843
181815
181712
181692
181681
181707
181787
181868
181786
181759
181781
181767
181815
181796
181698
181773
181754
181723
181747
181711
181756
181767
181792
181844
181750
181793
181790
181806
181855
181872
181779
181797
181814
181807
181762
181850
181843
181853
181851
181847
181842
181739
181722
181776
181746
181831
181869
181858
181819
181741
181730
181783
181827
181861
181852
181863
181848
181860
181846
181809
181789
181819
181852
181858
181834
181898
181858
181887
181883
181776
181729
181719
181717
181760
181821
181980
182037
181878
181866
181760
181776
181860
181822
181713
181660
181678
181757
181895
182041
181972
182017
181958
181866
181842
181821
181891
181915
181885
181870
181827
181906
181838
181775
181809
181867
181935
181956
181966
181944
181914
181918
181922
181858
181849
181831
181868
181853
181913
181933
181891
181895
181902
181925
181947
181876
181974
181909
181921
182007
181948
181917
181913
181968
182009
181949
181944
182000
182031
181973
181941
182005
181952
182001
181934
181869
181905
181959
182005
182007
181939
181906
181863
181858
181868
181856
181988
182012
181959
182024
182002
181979
181990
181943
181866
181911
181838
181825
181977
182025
181935
181940
182039
181998
181999
181961
181942
181997
182057
182050
181958
182034
182020
181899
181914
181907
181953
182070
182143
182102
182064
182132
182169
182224
182280
182266
182272
182263
182308
182308
182244
182190
182102
182081
182060
182039
181989
181944
181882
181869
181796
181806
181670
181657
181565
181537
181647
181812
181981
181928
181871
181927
181962
181964
181983
181987
182037
182057
182048
182078
182064
182065
182033
182048
182097
182068
182119
182129
182167
182150
182089
182110
182132
182157
182141
182036
182057
182061
182134
182176
182200
182150
182132
182168
182161
182106
182130
182147
182219
182276
182222
182197
182144
182195
182185
182111
182154
182173
182194
182253
182301
182246
182256
182267
182221
182139
182190
182234
182259
182316
182297
182309
182284
182269
182317
182240
182239
182248
182303
182301
182279
182275
182277
182283
182278
182290
182379
182357
182343
182395
182346
182448
182488
182402
182306
182255
182360
182390
182432
182453
182354
182412
182441
182430
182433
182396
182365
182340
182324
182348
182444
182485
182472
182461
182492
182501
182572
182490
182419
182442
182437
182510
182460
182467
182504
182440
182330
182298
182358
182379
182390
182400
182465
182391
182341
182317
182335
182366
182369
182390
182314
182273
182261
182149
182249
182281
182322
182348
182353
182334
182259
182317
182342
182307
182259
182282
182350
182401
182395
182420
182423
182372
182332
182339
182303
182340
182336
182343
182416
182457
182439
182345
182330
182323
182320
182245
182268
182315
182331
182388
182374
182388
182362
182340
182295
182321
182415
182275
182273
182329
182315
182364
182439
182421
182422
182287
182283
182318
182445
182567
182546
182530
182504
182475
182434
182410
182346
182328
182338
182369
182375
182519
182567
182519
182402
182373
182461
182438
182462
182509
182485
182450
182382
182422
182418
182359
182433
182454
182455
182472
182480
182512
182491
182420
182401
182375
182395
182424
182424
182485
182488
182477
182472
182524
182494
182479
182559
182518
182429
182424
182342
182376
182466
182622
182607
182558
182480
182489
182529
182552
182498
182574
182575
182560
182486
182432
182486
182571
182614
182617
182564
182565
182475
182395
182473
182437
182535
182558
182576
182526
182518
182580
182571
182527
182459
182407
182423
182420
182478
182554
182536
182656
182665
182580
182532
182505
182477
182530
182566
182584
182542
182559
182545
182525
182526
182501
182562
182616
182665
182662
182640
182637
182583
182540
182488
182464
182574
182618
182728
182735
182616
182627
182668
182666
182572
182447
182517
182643
182668
182621
182681
182708
182637
182694
182705
182639
182655
182657
182651
182675
182612
182651
182687
182707
182651
182550
182629
182634
182662
182664
182665
182750
182734
182734
182694
182632
182671
182693
182679
182667
182679
182676
182649
182658
182638
182621
182692
182657
182682
182788
182826
182735
182692
182653
182710
182679
182727
182752
182830
182836
182753
182787
182784
182741
182807
182794
182784
182779
182830
182924
182821
182865
182826
182826
182825
182813
182794
182806
182750
182676
182678
182777
182798
182768
182706
182699
182758
182725
182665
182626
182668
182835
182853
182791
182827
182795
182800
182803
182812
182903
182805
182889
182906
182881
182781
182722
182755
182812
182868
182926
182864
182868
182843
182814
182798
182769
182821
182859
182854
182805
182831
182851
182871
182919
182913
182841
182837
182939
183042
183117
183166
183214
183248
183142
183103
183007
183014
182977
182885
182912
183007
182956
182868
182752
182698
182595
182501
182501
182455
182552
182663
182718
182680
182668
182714
182611
182625
182715
182768
182799
182813
182884
182889
182953
182973
182931
182929
182891
182892
182905
182956
182974
182964
182981
183018
182947
182980
182977
182993
182991
182910
182941
183046
183059
183117
182962
182964
182962
182967
183022
183000
183042
183079
183071
183026
182976
183070
183085
183042
183073
183083
183111
183061
183042
183045
183045
183069
183135
183160
183073
183095
183103
183077
183129
183160
183069
183077
183049
183086
183087
183109
183194
183157
183091
183100
183073
183109
183171
183313
183281
183227
183213
183153
183164
183180
183157
183244
183242
183256
183207
183189
183214
183233
183283
183282
183239
183232
183185
183236
183278
183276
183342
183292
183230
183210
183156
183222
183301
183306
183231
183176
183323
183372
183378
183334
183293
183418
183226
183133
183185
183196
183299
183384
183288
183260
183200
183206
183222
183166
183181
183218
183207
183225
183248
183231
183146
183118
183138
183189
183151
183087
183135
183213
183240
183257
183200
183205
183176
183104
183109
183092
183185
183159
183138
183143
183114
183098
183157
183238
183325
183338
183289
183295
183250
183222
183119
183018
183007
183141
183158
183139
183155
183246
183259
183211
183124
183137
183077
183085
183226
183203
183293
183318
183284
183235
183151
183164
183162
183161
183161
183146
183178
183225
183219
183168
183175
183247
183252
183240
183217
183181
183168
183213
183209
183095
183021
183137
183324
183361
183331
183278
183293
183273
183219
183210
183151
183186
183202
183199
183196
183137
183163
183239
183227
183269
183208
183142
183134
183127
183177
183218
183278
183260
183144
183179
183145
183144
183166
183189
183224
183218
183232
183229
183227
183241
183170
183221
183204
183151
183155
183167
183201
183210
183199
183214
183191
183214
183194
183193
183198
183215
183217
183180
183216
183194
183110
183099
183095
183128
183256
183237
183228
183273
183236
183181
183150
183175
183202
183260
183217
183145
183191
183162
183180
183149
183078
183135
183186
183223
183177
183166
183239
183241
183213
183120
182980
183103
183102
183123
183151
183078
183110
183195
183196
183141
183055
183141
183107
183051
183051
183045
183141
183294
183296
183234
183132
183189
183146
183113
183141
183149
183163
183111
183065
183063
183119
183191
183174
183115
183152
183113
183156
183212
183207
183083
183009
182995
183023
183103
183133
183103
183148
183149
183151
183170
183059
183080
183156
183127
183063
183049
183137
183163
183121
183160
183120
183080
183047
183063
183079
183061
183053
183113
183204
183177
183125
183123
183135
183102
183082
183090
183127
183189
183162
183156
183170
183206
183207
183171
183191
182995
183124
183222
183226
183212
183131
183130
183190
183204
183211
183137
183197
183223
183267
183222
183175
183197
183154
183123
183106
183086
183105
183093
183089
183196
183207
183225
183194
183071
183021
182986
183042
183125
183149
183228
183221
183161
183150
183063
183033
183028
183131
183119
183193
183176
183089
183116
183126
183096
183156
183133
183162
183155
183161
183133
183103
183107
183074
183067
183120
183168
183228
183209
183163
183137
183194
183209
183237
183277
183397
183391
183406
183417
183391
183417
183311
183305
183204
183174
183089
182927
182948
182887
182842
182862
182687
182642
182581
182599
182724
182784
182820
182893
182921
182946
182957
182949
182976
182988
183032
183038
183046
183091
183110
183177
183135
183137
183148
183126
183061
182981
182984
183075
183153
183173
183121
183134
183113
183082
183026
183077
183206
183206
183302
183243
183067
183042
183011
183046
183107
183103
183109
183099
183106
183127
183054
183096
183083
183111
183126
183082
183073
183112
183168
183145
183032
183013
183025
183050
183112
183179
183252
183200
183132
183159
183117
183024
183089
183072
183136
183137
183195
183225
183133
183173
183251
183183
183141
183138
183079
183067
183165
183197
183212
183245
183197
183176
183139
183161
183133
183136
183244
183298
183194
183188
183171
183134
183125
183187
183235
183201
183152
183149
183161
183188
183223
183264
183211
183139
183153
183103
183129
183215
183293
183287
183175
183141
183163
183133
183116
183045
183073
183104
183171
183140
183100
183096
183120
183080
183030
182983
182937
182988
183178
183268
183050
183068
182989
182910
182981
182933
183027
183063
183065
183067
183041
182960
182935
182947
182904
182900
183048
183099
183058
183033
183032
183025
182980
182922
182871
182857
182903
182940
182952
183005
183062
183022
183003
183003
182974
182911
182949
182958
182942
183001
182916
182898
182885
182884
182809
182760
182849
183038
183111
183086
183001
182967
182932
182976
182939
182925
183075
183041
183021
182998
182988
183023
182978
182960
182906
182863
182949
183040
183058
183043
182974
183010
183023
183065
183038
182947
182980
182979
182943
183059
183049
182999
182977
182995
182982
182979
182998
182999
183068
183038
183002
183024
182964
182939
183044
183097
183130
183041
183055
183016
182932
182964
182959
182938
182888
182952
183010
183016
182971
182986
182966
182989
183005
182978
182976
182988
183008
183061
183062
183051
182946
182922
182914
182920
182915
182910
183015
183075
183129
183133
183083
183075
182947
182906
182855
182810
182878
182966
183046
183051
182993
182965
182938
182956
182990
182942
182804
182841
182942
182942
182908
182970
183002
182867
182903
182894
182891
182950
182973
183089
183039
182951
182955
182907
182845
182804
182824
182883
182939
182964
182899
182954
182919
182853
182836
182886
182944
182955
182956
182909
182824
182833
182882
182919
182988
182910
182910
182881
182868
182910
182896
182973
182983
182969
182931
182939
182959
182977
182942
182919
182897
182922
182880
182912
182897
182851
182949
182997
182954
182934
182865
182879
182839
182836
182967
182832
182932
182975
183019
183074
183026
183048
183007
182919
182843
182836
182888
182919
183033
183159
183050
183004
182951
183028
183057
182948
182958
182988
182931
182971
183029
183070
183059
182968
182987
182919
182947
183011
183029
182987
182913
182955
182936
182958
182949
182937
182969
182972
182980
183034
182980
182947
182904
182824
182832
182811
182865
182922
182949
183017
183045
183065
183041
182989
183028
183031
182979
182935
182929
182909
182897
182937
182904
182876
182850
182892
182937
182940
182916
182938
182908
182879
182874
182880
182969
182977
182948
182946
183001
183065
183195
183296
183273
183229
183206
183158
183042
183106
183202
183093
182983
182990
182894
182773
182589
182511
182639
182619
182599
182624
182627
182651
182649
182674
182703
182702
182733
182774
182732
182730
182754
182839
182951
182989
182960
182860
182909
182911
182938
182942
182883
182861
182881
182822
182852
182874
182889
182922
182938
182920
182863
182906
182950
182979
182998
182908
182894
182888
182929
183021
182961
182970
182944
183041
183018
182942
182978
183046
183002
182980
182946
182995
183013
182907
182927
182902
182942
182900
182899
182951
182901
182988
183005
182960
182981
182948
182962
182999
183000
182996
182921
182979
182976
182927
182865
182900
183029
183145
183181
183149
183106
183157
183120
183053
183013
182934
183086
183041
183042
183071
183032
183101
183094
183043
183033
183059
183083
183051
183112
183113
183068
183154
183173
183087
183126
183012
182940
183016
183106
183156
183075
183064
183112
183152
183138
183118
183108
183147
183123
183105
183116
183161
183094
183054
183047
182968
182965
183034
183051
183032
182997
182990
182951
182919
182937
182963
183004
182997
183095
183058
182958
183002
182920
182831
182833
182805
182895
182904
182995
183089
183019
182990
182930
182871
182925
182950
183010
182983
182921
182961
182935
182947
183037
183045
182973
182909
182962
182958
182942
182915
182874
182939
183036
183051
182855
182827
182881
182863
182954
182964
182932
182971
182981
183002
183005
182986
182942
182889
182917
182917
182864
182892
182955
182907
182875
182833
182951
183045
183010
182992
182995
183023
183026
182978
182951
182990
182975
182961
182938
182979
183001
182980
182928
182911
182941
182909
182984
182969
183025
182983
182968
182980
183030
183038
182964
182798
182808
182853
182942
183055
182956
182988
182977
183008
183033
182964
182947
182974
182968
182867
182823
182898
182992
183082
183123
182953
182945
182886
182886
183009
183045
183109
183066
183017
182976
182945
182983
182973
182977
182979
182919
182935
182983
182988
182963
182933
183023
182990
182967
182908
182866
182934
182900
182943
183025
182874
182944
182975
182960
182939
182865
182916
182932
182894
182901
182841
182823
182864
182866
182906
182907
182899
182952
182984
182932
182794
182736
182724
182746
182765
182706
182719
182788
182823
182884
182874
182888
182867
182851
182880
182814
182852
182878
182806
182717
182740
182807
182810
182867
182865
182887
182921
182847
182801
182749
182688
182765
182783
182786
182822
182794
182754
182826
182865
182912
182840
182839
182856
182799
182800
182779
182787
182785
182738
182723
182731
182762
182780
182805
182773
182776
182804
182842
182846
182785
182734
182745
182762
182815
182818
182828
182853
182767
182712
182742
182727
182733
182733
182740
182789
182827
182852
182793
182780
182729
182684
182793
182824
182850
182896
182880
182872
182932
182997
182757
182683
182629
182620
182758
182867
182842
182895
182986
182889
182786
182791
182819
182812
182738
182729
182719
182738
182795
182778
182719
182657
182674
182679
182710
182819
182802
182819
182817
182840
182781
182700
182718
182772
182780
182760
182764
182802
182836
182786
182739
182621
182686
182646
182608
182682
182704
182708
182700
182771
182715
182651
182685
182711
182706
182685
182622
182655
182629
182643
182686
182699
182782
182862
182855
182901
182870
182887
182884
182882
182931
182876
182975
183002
182934
182911
182882
182870
182883
182792
182709
182573
182501
182468
182430
182384
182337
182303
182330
182292
182280
182294
182398
182476
182494
182524
182539
182574
182592
182575
182594
182526
182557
182629
182615
182516
182543
182649
182718
182692
182630
182572
182589
182670
182669
182685
182626
182601
182640
182659
182619
182552
182589
182652
182665
182656
182581
182661
182678
182666
182711
182622
182628
182634
182621
182607
182606
182679
182747
182731
182701
182664
182633
182649
182682
182677
182708
182729
182652
182669
182640
182634
182682
182653
182595
182616
182612
182758
182812
182785
182773
182585
182567
182615
182600
182647
182678
182662
182718
182768
182731
182690
182752
182833
182803
182777
182741
182692
182703
182720
182696
182668
182760
182739
182759
182805
182768
182884
182779
182694
182721
182724
182796
182817
182757
182820
182805
182768
182713
182639
182656
182674
182739
182711
182767
182785
182694
182792
182823
182776
182778
182699
182664
182644
182648
182678
182675
182702
182674
182628
182588
182591
182570
182531
182546
182617
182606
182619
182656
182642
182609
182559
182478
182486
182526
182535
182539
182563
182448
182470
182472
182424
182542
182568
182517
182541
182517
182598
182543
182627
182610
182521
182507
182467
182437
182490
182485
182559
182505
182565
182625
182563
182535
182498
182440
182457
182447
182540
182504
182478
182516
182501
182436
182426
182448
182432
182447
182617
182614
182645
182649
182541
182527
182479
182475
182460
182316
182338
182429
182490
182579
182610
182604
182561
182531
182548
182497
182547
182536
182448
182495
182450
182431
182393
182310
182352
182495
182561
182525
182511
182537
182463
182463
182431
182415
182438
182420
182534
182544
182576
182610
182570
182578
182522
182456
182452
182386
182380
182460
182456
182427
182383
182501
182548
182522
182576
182565
182529
182505
182571
182540
182357
182324
182370
182447
182442
182483
182583
182610
182563
182523
182456
182476
182522
182519
182482
182523
182594
182573
182521
182539
182511
182496
182530
182485
182437
182419
182530
182514
182521
182496
182423
182451
182496
182432
182404
182371
182453
182437
182545
182596
182521
182396
182346
182428
182483
182430
182362
182377
182436
182501
182507
182616
182635
182525
182529
182504
182535
182524
182487
182500
182432
182471
182504
182478
182496
182456
182534
182535
182556
182575
182435
182429
182458
182394
182524
182495
182565
182544
182469
182435
182439
182432
182419
182439
182434
182393
182510
182539
182550
182681
182628
182539
182432
182506
182499
182548
182581
182540
182488
182447
182420
182534
182569
182532
182540
182473
182542
182574
182526
182526
182531
182493
182456
182502
182521
182500
182568
182629
182588
182559
182485
182486
182458
182409
182447
182445
182550
182650
182664
182646
182606
182585
182527
182501
182542
182565
182586
182612
182626
182635
182561
182536
182521
182485
182558
182609
182603
182637
182604
182543
182488
182476
182479
182474
182491
182500
182554
182523
182407
182457
182423
182406
182408
182416
182431
182414
182563
182636
182662
182650
182573
182576
182517
182492
182488
182453
182486
182460
182527
182567
182459
182538
182508
182435
182411
182415
182597
182714
182666
182636
182443
182488
182496
182534
182548
182514
182606
182631
182638
182678
182666
182709
182742
182734
182706
182665
182718
182756
182714
182665
182521
182520
182509
182449
182339
182175
182181
182200
182191
182158
182137
182192
182170
182116
182183
182192
182226
182373
182439
182419
182253
182301
182366
182378
182398
182357
182509
182493
182488
182464
182410
182438
182521
182508
182420
182371
182456
182511
182491
182505
182483
182485
182547
182522
182471
182436
182481
182496
182497
182512
182536
182538
182560
182610
182542
182436
182499
182551
182544
182554
182508
182528
182473
182451
182469
182439
182523
182567
182613
182571
182522
182603
182560
182455
182444
182462
182525
182469
182582
182599
182565
182574
182608
182599
182539
182489
182581
182604
182662
182711
182646
182597
182533
182511
182517
182516
182558
182580
182610
182655
182621
182702
182710
182641
182588
182519
182575
182670
182688
182655
182582
182629
182594
182572
182540
182454
182517
182670
182655
182672
182684
182684
182661
182561
182560
182548
182613
182587
182659
182678
182600
182603
182604
182568
182517
182533
182568
182610
182549
182486
182462
182535
182579
182604
182529
182430
182500
182512
182551
182465
182360
182377
182432
182435
182432
182393
182537
182597
182539
182483
182427
182407
182385
182415
182448
182393
182415
182411
182413
182395
182462
182559
182456
182385
182339
182342
182498
182564
182568
182560
182470
182498
182518
182503
182388
182406
182407
182434
182411
182420
182431
182500
182479
182496
182500
182481
182492
182511
182479
182433
182409
182394
182359
182355
182369
182448
182547
182606
182491
182558
182495
182492
182500
182417
182424
182405
182477
182520
182548
182514
182488
182533
182520
182440
182464
182391
182416
182474
182464
182430
182465
182527
182507
182529
182489
182404
182476
182477
182464
182489
182452
182486
182504
182469
182382
182315
182435
182501
182461
182387
182411
182447
182490
182492
182492
182455
182476
182543
182567
182454
182413
182397
182365
182349
182387
182382
182500
182468
182449
182461
182458
182425
182446
182401
182338
182288
182334
182388
182397
182454
182374
182380
182399
182459
182504
182332
182303
182397
182438
182391
182342
182374
182348
182329
182357
182379
182423
182485
182509
182386
182403
182440
182371
182385
182437
182406
182446
182319
182378
182374
182229
182266
182295
182301
182315
182319
182367
182355
182424
182460
182440
182463
182392
182298
182327
182329
182315
182407
182461
182495
182362
182376
182296
182220
182179
182241
182340
182381
182421
182427
182375
182416
182383
182319
182340
182361
182384
182406
182349
182326
182308
182381
182392
182439
182419
182308
182313
182391
182471
182560
182470
182407
182450
182433
182387
182335
182369
182386
182393
182442
182351
182375
182347
182391
182382
182437
182494
182482
182476
182481
182389
182397
182367
182293
182386
182433
182453
182567
182617
182598
182448
182420
182412
182426
182523
182521
182477
182472
182505
182482
182443
182390
182367
182351
182351
182350
182454
182424
182424
182431
182400
182453
182383
182355
182331
182280
182323
182417
182489
182426
182348
182382
182360
182390
182369
182357
182469
182476
182433
182444
182472
182483
182435
182361
182368
182333
182416
182432
182394
182403
182369
182358
182337
182301
182325
182329
182409
182404
182353
182360
182410
182370
182337
182352
182434
182403
182473
182554
182677
182731
182720
182690
182641
182575
182446
182353
182300
182245
182209
182184
182072
182082
182044
181989
181955
181922
181938
182056
182121
182089
182027
182055
182120
182121
182118
182175
182186
182252
182286
182352
182393
182419
182423
182385
182331
182335
182319
182268
182346
182416
182336
182366
182404
182331
182311
182254
182313
182357
182363
182376
182350
182420
182346
182321
182313
182236
182297
182352
182408
182398
182393
182337
182276
182232
182256
182311
182354
182400
182448
182441
182389
182433
182409
182385
182372
182360
182384
182421
182434
182410
182394
182433
182453
182393
182418
182341
182356
182370
182413
182446
182411
182410
182492
182410
182385
182346
182432
182400
182423
182434
182400
182409
182430
182385
182351
182412
182479
182520
182544
182555
182465
182490
182473
182430
182357
182370
182399
182477
182477
182445
182502
182531
182480
182402
182439
182464
182493
182507
182500
182453
182383
182456
182518
182513
182432
182322
182412
182387
182423
182449
182407
182402
182399
182392
182367
182301
182359
182369
182412
182479
182364
182309
182324
182307
182320
182328
182393
182369
182327
182361
182348
182452
182462
182307
182244
182209
182303
182280
182312
182419
182424
182427
182430
182279
182182
182183
182289
182256
182285
182440
182399
182367
182419
182384
182319
182326
182399
182447
182419
182446
182335
182337
182350
182311
182300
182249
182294
182424
182460
182480
182407
182395
182334
182290
182296
182295
182294
182230
182266
182355
182402
182498
182507
182529
182468
182345
182350
182344
182413
182417
182337
182385
182449
182400
182333
182307
182437
182459
182425
182400
182388
182492
182449
182391
182323
182332
182397
182318
182441
182423
182405
182470
182462
182404
182352
182281
182325
182295
182300
182385
182350
182345
182401
182416
182474
182399
182369
182356
182418
182472
182427
182440
182379
182323
182266
182288
182366
182299
182327
182396
182358
182361
182377
182404
182424
182324
182328
182407
182377
182391
182346
182351
182389
182486
182387
182267
182343
182355
182324
182316
182304
182393
182426
182452
182432
182311
182311
182340
182296
182306
182329
182288
182342
182400
182344
182243
182307
182318
182282
182325
182317
182352
182313
182231
182154
182093
182185
182274
182352
182327
182312
182356
182356
182322
182287
182217
182249
182215
182284
182306
182275
182364
182463
182307
182266
182223
182274
182301
182301
182294
182257
182290
182288
182261
182172
182097
182154
182267
182370
182407
182302
182366
182397
182294
182207
182154
182169
182173
182233
182283
182308
182349
182394
182381
182315
182272
182245
182232
182246
182247
182229
182277
182378
182380
182333
182263
182242
182301
182287
182318
182323
182289
182316
182322
182347
182309
182330
182333
182281
182312
182337
182305
182286
182277
182249
182225
182284
182364
182362
182366
182334
182291
182279
182404
182340
182186
182192
182214
182209
182233
182230
182310
182362
182338
182258
182174
182196
182234
182234
182294
182271
182275
182208
182192
182181
182140
182138
182130
182105
182138
182120
182157
182166
182235
182199
182177
182135
182175
182209
182230
182187
182194
182284
182336
182291
182169
182202
182250
182270
182356
182406
182503
182547
182517
182412
182275
182299
182365
182391
182375
182281
182173
182019
181912
181837
181694
181663
181724
181842
181729
181770
181780
181820
181816
181851
181864
181919
181950
181932
181998
182032
182086
182097
182079
182045
181980
181980
181958
181933
181984
182069
182087
182134
182048
181977
181896
181925
181987
182107
182115
181961
181957
181905
181878
181884
181925
182035
182101
182089
182011
181941
182002
181975
181941
181983
181935
181967
181950
181958
181961
181935
181845
181807
181764
181807
181896
181978
181953
181905
181944
181921
181937
181933
181883
181820
181758
181845
181902
181959
181918
181856
181815
181798
181810
181896
181897
181904
181900
181842
181835
181839
181896
181885
181853
181945
181898
181890
181863
181850
181900
181909
181979
181946
181867
181886
181824
181822
181755
181788
181841
181818
181891
181895
181880
181818
181734
181706
181739
181720
181763
181754
181814
181832
181785
181851
181772
181747
181733
181740
181697
181674
181737
181736
181719
181662
181606
181586
181594
181545
181633
181619
181635
181620
181579
181500
181439
181480
181459
181396
181464
181471
181427
181397
181373
181357
181272
181332
181385
181453
181473
181346
181388
181362
181364
181329
181237
181262
181305
181296
181307
181310
181303
181286
181267
181332
181358
181327
181252
181204
181259
181210
181223
181255
181314
181218
181193
181201
181225
181176
181177
181169
181256
181241
181194
181164
181084
181023
181049
181121
181188
181068
181099
181139
181112
181140
181021
181000
181017
181014
181005
181040
181100
181083
181067
181109
181052
181048
181001
181021
181011
180971
180894
180923
180942
180998
180999
181035
181038
181006
181021
180950
181035
181004
181001
181042
180996
181003
180901
180922
180858
180856
180892
180937
180907
180961
180879
180889
180934
180908
180878
180873
180936
180848
180782
180823
180762
180735
180715
180740
180720
180676
180734
180859
180903
180926
180867
180752
180756
180791
180816
180779
180723
180792
180806
180820
180691
180646
180709
180745
180736
180675
180754
180769
180734
180741
180655
180659
180620
180652
180682
180668
180678
180608
180585
180597
180530
180512
180463
180450
180428
180419
180589
180625
180618
180628
180624
180557
180546
180560
180576
180582
180567
180570
180648
180466
180315
180324
180336
180363
180387
180422
180462
180468
180449
180430
180344
180354
180434
180478
180369
180331
180399
180358
180307
180329
180247
180243
180354
180411
180358
180330
180405
180367
180335
180324
180233
180215
180211
180206
180265
180246
180366
180370
180312
180246
180152
180131
180218
180326
180340
180258
180338
180409
180383
180311
180192
180190
180185
180151
180156
180149
180241
180243
180245
180251
180176
180145
180111
180095
180112
180124
180237
180257
180194
180256
180208
180222
180125
180091
180080
180004
180007
179962
180036
180093
180105
180089
180130
180136
180100
180000
180058
180045
180035
179945
179871
179937
180010
180000
180062
179984
180037
179991
180048
180016
179960
180005
179929
179920
179920
179893
179919
179887
179908
179964
179987
179976
179957
179998
180046
180041
180040
180071
180096
180080
180038
180009
180069
180136
180233
180190
180214
180218
180152
180033
179884
179844
179727
179629
179709
179658
179560
179613
179595
179512
179450
179472
179562
179587
179623
179549
179625
179668
179752
179827
179755
179791
179833
179872
179870
179818
179862
179833
179841
179788
179674
179674
179710
179788
179866
179838
179943
179977
179925
179896
179809
179811
179737
179657
179625
179690
179782
179846
179851
179924
179819
179779
179792
179762
179767
179663
179616
179726
179745
179800
179803
179772
179749
179792
179773
179712
179737
179741
179672
179641
179578
179621
179662
179729
179763
179685
179738
179707
179685
179683
179675
179750
179741
179749
179711
179666
179681
179704
179769
179778
179675
179557
179648
179715
179707
179716
179728
179720
179706
179659
179640
179652
179657
179612
179531
179428
179470
179610
179743
179806
179693
179705
179657
179622
179632
179627
179698
179673
179629
179621
179597
179611
179585
179517
179539
179637
179663
179698
179683
179689
179556
179559
179554
179535
179589
179380
179442
179486
179513
179509
179441
179446
179419
179388
179436
179374
179435
179446
179418
179380
179316
179369
179344
179335
179382
179347
179333
179339
179436
179491
179378
179316
179256
179257
179351
179303
179324
179391
179383
179387
179333
179369
179324
179325
179349
179303
179229
179301
179283
179247
179230
179244
179278
179221
179235
179217
179248
179257
179286
179279
179282
179310
179295
179326
179304
179200
179231
179214
179240
179333
179334
179262
179230
179223
179212
179163
179266
179298
179251
179230
179160
179199
179264
179297
179280
179195
179240
179251
179184
179205
179142
179201
179206
179167
179208
179088
179083
179154
179247
179279
179257
179250
179307
179199
179277
179212
179182
179253
179286
179266
179178
179154
179153
179102
179076
179048
179069
179154
179194
179185
179199
179210
179160
179106
179077
179060
179046
179076
179169
179148
179067
179096
179073
179047
179055
179010
179109
179236
179183
179140
179154
179156
179149
179121
179102
179000
179078
179170
179173
179147
179042
179111
179150
179157
179080
179004
179033
179054
179051
179040
178924
178996
179026
179019
179083
179042
179069
179102
179137
179118
179088
179090
179049
179039
179016
178985
179143
179182
179088
179151
179060
179036
179024
178993
179055
179015
178973
179034
179086
179129
178994
178997
179002
178989
179043
178990
179035
179052
179077
179082
179079
179032
179009
179015
179106
179024
179022
179024
178972
178972
179040
179104
179150
179067
179071
179031
179023
179053
179067
179019
178994
179041
179042
179024
179021
179025
179067
179081
179042
179037
179016
179047
178970
178850
178858
178849
178904
179007
179147
179178
179132
179096
179030
178976
178994
178985
178950
178883
178882
178890
178900
179086
179026
178942
178986
179033
179083
179058
179023
179019
178947
178961
178944
178881
178906
178919
178871
178881
178926
178939
178970
178979
178984
178990
178997
178994
178976
179022
179014
179009
178948
179042
179052
179091
179196
179227
179279
179306
179401
179352
179236
179186
179091
179009
178983
178912
178853
178746
178798
178783
178652
178609
178607
178631
178612
178609
178713
178704
178758
178746
178760
178862
178855
178849
178855
178846
178840
178927
178953
178886
178789
178951
179047
179071
179111
179027
179048
179025
178995
178954
178920
179021
179021
179047
179038
178991
179004
179018
179019
179047
179031
179008
179021
178990
178953
178944
178926
178965
178992
178997
178925
178892
178970
179003
178998
178932
178992
179022
178984
178990
178957
178988
178989
178907
178980
178997
178931
178921
179001
179017
178974
178991
179051
178991
178971
179004
179043
179030
179024
179017
178991
179096
179102
179071
179016
178953
178899
178942
179047
179022
178993
179011
179045
178922
178867
178891
179011
179076
179168
179170
179051
179089
179099
179052
178989
178897
178962
178988
179037
179059
179130
179181
179182
179110
179046
178940
179015
179118
179137
179113
179057
179058
179068
179071
179035
178969
179028
179057
179000
179042
179038
178983
178948
178890
178839
178788
178915
179105
179157
179044
178875
178936
178904
178865
178863
178840
178848
178894
178899
178897
178891
178939
178972
178919
178842
178809
178826
178866
178962
179019
178929
178961
178949
178781
178786
178815
178863
178912
179018
178974
178804
178866
178898
178873
178809
178784
178774
178747
178821
178837
178720
178803
178887
178898
178860
178778
178809
178895
178918
178950
178879
178868
178846
178784
178768
178713
178799
178787
178869
178975
178920
178913
178909
178859
178808
178708
178744
178726
178710
178726
178737
178864
178910
178862
178891
178804
178753
178754
178840
178869
178859
178841
178824
178856
178805
178732
178766
178720
178799
178935
178913
178908
178881
178865
178800
178723
178719
178711
178729
178834
178778
178787
178829
178859
178698
178651
178674
178670
178772
178851
178790
178800
178773
178724
178752
178704
178710
178681
178749
178757
178772
178816
178810
178764
178762
178715
178674
178724
178764
178827
178782
178740
178694
178720
178736
178702
178669
178667
178719
178761
178749
178684
178674
178695
178619
178526
178612
178665
178655
178680
178681
178670
178626
178666
178676
178564
178612
178668
178669
178648
178583
178593
178612
178620
178648
178617
178626
178588
178558
178532
178581
178642
178636
178646
178584
178464
178546
178577
178573
178595
178533
178657
178580
178594
178599
178438
178407
178424
178469
178498
178518
178551
178545
178513
178433
178432
178571
178575
178567
178587
178518
178496
178479
178506
178489
178407
178462
178517
178490
178491
178532
178564
178528
178482
178442
178368
178449
178421
178343
178380
178321
178360
178356
178378
178405
178381
178340
178286
178287
178328
178297
178323
178304
178290
178314
178250
178213
178191
178223
178308
178318
178295
178273
178257
178171
178161
178176
178213
178150
178092
178000
177997
177989
178116
178135
178173
178196
178162
178129
178093
178006
178015
177975
178004
178052
178061
178062
178013
178032
178004
177939
178027
178006
177975
178042
178059
178104
178127
178154
178165
178103
178168
178183
178176
178113
178014
177901
177864
177723
177670
177532
177552
177474
177424
177386
177341
177405
177521
177517
177586
177594
177580
177588
177551
177474
177434
177530
177561
177600
177635
177595
177630
177609
177564
177529
177526
177557
177589
177560
177539
177531
177556
177493
177461
177416
177382
177464
177483
177506
177532
177526
177593
177575
177545
177464
177397
177396
177357
177322
177350
177269
177320
177358
177384
177416
177367
177313
177275
177288
177329
177284
177241
177213
177174
177168
177226
177329
177341
177350
177291
177210
177221
177182
177087
177036
176994
177091
177190
177164
177161
177177
177203
177184
177225
177154
177055
177078
176998
176948
176993
176980
177060
177082
177072
177026
176916
176900
176949
176940
176965
176970
177075
177165
177114
176961
176882
176913
176916
176929
176916
176882
176902
176900
176873
176866
176800
176794
176831
176839
176892
176858
176818
176818
176771
176741
176706
176649
176718
176762
176695
176667
176691
176652
176576
176557
176472
176498
176559
176538
176533
176547
176566
176565
176597
176489
176401
176419
176307
176234
176279
176348
176330
176351
176399
176345
176290
176284
176253
176192
176154
176152
176244
176208
176273
176350
176222
176154
176130
176093
176063
176051
176074
176099
176030
175975
175871
175925
175980
176038
176071
176068
176108
176045
175990
175965
175913
175911
175983
175897
175875
175875
175866
175897
175936
175891
175833
175783
175781
175801
175820
175764
175773
175716
175715
175745
175715
175695
175665
175686
175724
175726
175783
175697
175616
175596
175609
175639
175601
175609
175621
175586
175579
175595
175570
175545
175466
175425
175444
175414
175449
175427
175546
175607
175611
175581
175442
175412
175320
175287
175342
175353
175449
175398
175366
175220
175188
175264
175276
175384
175414
175362
175375
175390
175303
175187
175161
175229
175268
175223
175217
175223
175266
175269
175170
175118
175093
175121
175169
175206
175124
175053
175147
175177
175163
175144
175050
175079
175024
174964
174894
174899
174961
175084
175154
175076
174973
174982
174970
174907
174963
174918
174866
174830
174846
174853
174962
174991
174906
174884
174834
174845
174908
174930
174863
174817
174728
174712
174727
174748
174713
174649
174727
174825
174803
174762
174703
174736
174747
174666
174637
174632
174625
174694
174665
174675
174648
174709
174708
174675
174728
174671
174590
174632
174636
174611
174518
174480
174481
174536
174628
174657
174670
174613
174585
174506
174448
174467
174468
174463
174459
174418
174484
174496
174477
174466
174515
174497
174475
174431
174502
174533
174524
174442
174405
174441
174361
174393
174416
174395
174377
174348
174439
174525
174528
174513
174467
174518
174470
174372
174275
174322
174340
174307
174298
174297
174205
174216
174257
174259
174288
174259
174273
174229
174206
174188
174121
174160
174104
174161
174163
174200
174282
174265
174248
174326
174283
174244
174192
174127
174109
174121
174185
174166
174223
174168
174022
174065
174088
174094
174048
174033
174107
174157
174113
174115
174068
174098
174072
174091
174117
174061
174048
174013
174071
174118
174131
174253
174277
174311
174359
174371
174284
174270
174241
174244
174146
174111
174034
173998
173943
173841
173772
173807
173818
173632
173576
173590
173674
173671
173734
173729
173709
173689
173719
173819
173833
173798
173917
173972
173899
173888
174005
173993
173988
173958
173902
173913
173909
173871
173788
173818
173897
173915
173952
174000
173962
174029
173990
173869
173813
173753
173834
173891
173918
173895
173888
173911
173952
173940
173921
173878
173924
173946
173910
173928
173873
173818
173882
173954
173903
173853
173919
173988
174025
173995
173844
173844
173804
173848
173880
173889
173975
173965
173942
173981
173897
173840
173808
173840
173822
173781
173836
173902
173978
174006
173982
173944
173947
174014
174051
174055
174035
174064
174046
174046
174071
174037
173966
173968
174042
173983
174015
174055
174050
174044
174032
174007
173970
173969
173990
173914
173976
174030
174066
174053
173970
173991
173957
173990
174053
174033
174002
174033
173994
174007
173894
173943
174006
173922
173928
173951
174088
174179
174156
174074
173948
173933
173901
173857
173871
173846
173952
173984
173978
173965
173863
173842
173818
173840
173745
173702
173857
173908
173853
173864
173901
173889
173834
173826
173856
173812
173867
173913
173926
173949
173969
174001
173872
173797
173812
173834
173902
173900
173952
173949
173909
173939
173885
173886
173862
173843
173879
173903
173935
173899
173785
173854
173835
173857
173845
173791
173834
173870
173907
173885
173877
173934
173874
173919
173947
173910
173982
173939
173896
173921
173927
173927
173943
173953
173972
173961
173978
174046
174046
174076
174081
174007
173911
173834
173896
173903
174005
174039
174007
174011
173943
173939
173862
173854
173951
173984
174015
174143
174111
174078
173995
173951
173924
173961
174010
174051
174141
174086
174086
174082
174048
174037
174036
174004
174005
173961
174000
174076
174162
174152
174123
174169
174108
174061
173961
173881
173996
174043
174055
174106
174113
174168
174059
174074
174136
174045
174024
174133
174139
174125
174072
174115
174183
174159
174153
174151
174159
174148
174178
174153
174080
174072
174079
174124
174168
174086
174075
174118
174162
174133
174110
174158
174196
174166
174089
174039
174130
174228
174199
174187
174121
174101
174128
174136
174172
174183
174145
174145
174174
174192
174137
174192
174180
174164
174212
174175
174227
174208
174253
174315
174175
174176
174244
174199
174189
174204
174262
174319
174368
174383
174304
174309
174229
174198
174259
174221
174192
174190
174274
174314
174271
174322
174370
174306
174285
174328
174307
174339
174338
174354
174334
174308
174315
174294
174340
174350
174399
174459
174450
174381
174328
174371
174370
174340
174348
174364
174446
174514
174522
174498
174425
174533
174602
174547
174415
174422
174501
174469
174419
174369
174338
174437
174464
174481
174477
174366
174301
174467
174525
174525
174446
174454
174466
174480
174422
174417
174508
174534
174534
174570
174538
174556
174509
174523
174564
174519
174526
174601
174623
174624
174587
174606
174566
174575
174660
174656
174628
174585
174597
174646
174646
174703
174637
174589
174609
174570
174587
174619
174628
174620
174664
174821
174994
175085
174971
174892
174924
174907
174968
174933
174876
174874
174830
174723
174712
174600
174475
174502
174462
174369
174247
174313
174336
174377
174440
174445
174496
174513
174536
174570
174555
174602
174618
174648
174790
174815
174767
174816
174812
174734
174694
174731
174752
174811
174822
174802
174779
174784
174825
174846
174808
174813
174824
174789
174779
174786
174912
174926
174981
174968
174879
174810
174805
174875
174813
174753
174882
174998
175058
174971
174865
174912
174956
174926
174957
174977
175040
175012
175014
175041
175060
175048
175004
175014
175009
174931
174935
174996
175023
175010
174970
175044
175026
174993
175008
174977
175009
175050
175129
175152
175049
175038
175047
175008
175086
175081
175163
175232
175291
175261
175152
175084
175135
175221
175264
175249
175279
175301
175314
175306
175234
175257
175294
175278
175308
175219
175301
175349
175372
175390
175384
175375
175330
175269
175218
175227
175314
175349
175349
175377
175276
175327
175344
175326
175310
175281
175279
175233
175218
175260
175307
175362
175397
175312
175322
175269
175205
175268
175250
175289
175353
175400
175405
175403
175283
175246
175316
175366
175350
175382
175345
175411
175369
175347
175395
175305
175309
175291
175352
175424
175397
175414
175431
175350
175289
175271
175331
175380
175417
175445
175431
175397
175461
175413
175421
175392
175415
175411
175365
175323
175341
175392
175470
175466
175473
175467
175480
175480
175489
175490
175465
175488
175528
175493
175433
175379
175449
175497
175522
175588
175613
175527
175559
175586
175521
175482
175547
175532
175451
175470
175545
175600
175648
175630
175616
175536
175618
175650
175633
175656
175586
175599
175605
175595
175607
175611
175763
175787
175782
175774
175716
175735
175712
175692
175647
175633
175667
175712
175792
175770
175680
175691
175726
175758
175746
175695
175688
175710
175711
175764
175764
175734
175749
175711
175718
175712
175734
175785
175773
175835
175791
175822
175831
175804
175828
175849
175927
175921
175886
175922
175926
175950
175941
175886
175794
175804
175886
175932
175932
175933
175905
175943
175882
175799
175858
175873
175919
175928
175864
175856
175811
175865
175901
175884
175903
175832
175894
175949
175955
176022
175993
175946
175898
175942
175942
175887
175937
176039
176088
176068
176030
176047
176033
176033
176000
175950
175971
176008
175990
175955
175986
176058
176089
176113
176078
175995
176030
176051
175977
175955
175958
175994
176015
176023
176063
176018
176045
175991
175990
175989
176015
176102
176114
176148
176161
176115
176155
176152
176129
176155
176080
176136
176214
176162
176154
176045
176074
176092
176197
176250
176196
176203
176234
176213
176165
176085
176110
176149
176184
176241
176212
176192
176240
176263
176237
176193
176182
176261
176250
176220
176190
176288
176290
176330
176301
176233
176254
176258
176280
176328
176330
176347
176283
176290
176303
176252
176318
176326
176244
176257
176277
176304
176332
176290
176277
176218
176246
176343
176388
176349
176310
176349
176367
176342
176299
176230
176245
176279
176265
176382
176410
176420
176383
176260
176237
176272
176337
176387
176399
176420
176395
176365
176397
176405
176447
176344
176320
176390
176385
176441
176486
176530
176488
176447
176458
176469
176540
176620
176650
176760
176754
176732
176717
176627
176535
176410
176416
176492
176394
176302
176221
176143
176185
176161
176117
176010
175981
176027
176080
176171
176252
176309
176338
176364
176263
176247
176347
176492
176513
176479
176481
176535
176511
176499
176433
176296
176330
176412
176425
176485
176508
176561
176559
176516
176452
176393
176437
176543
176614
176581
176545
176534
176522
176457
176403
176401
176437
176518
176485
176485
176546
176573
176562
176581
176560
176558
176540
176544
176466
176426
176526
176510
176487
176532
176634
176574
176624
176645
176618
176623
176652
176598
176587
176557
176477
176358
176439
176514
176603
176736
176691
176691
176679
176637
176610
176616
176532
176535
176662
176674
176665
176714
176762
176723
176722
176685
176706
176741
176682
176688
176759
176802
176771
176789
176791
176639
176650
176759
176739
176713
176734
176782
176802
176908
176869
176715
176746
176741
176787
176781
176765
176780
176759
176807
176771
176636
176662
176624
176631
176664
176604
176624
176640
176672
176708
176753
176772
176747
176693
176657
176601
176672
176643
176659
176685
176663
176734
176641
176579
176658
176705
176728
176672
176628
176616
176571
176543
176570
176616
176658
176628
176657
176657
176675
176625
176586
176579
176564
176558
176584
176572
176624
176607
176559
176586
176553
176571
176583
176614
176638
176650
176640
176595
176548
176547
176476
176550
176592
176615
176691
176707
176697
176676
176640
176665
176563
176661
176742
176762
176724
176666
176709
176723
176669
176641
176571
176565
176596
176614
176578
176628
176704
176710
176700
176705
176624
176665
176708
176757
176722
176662
176720
176721
176698
176695
176687
176736
176653
176656
176615
176525
176673
176726
176721
176731
176639
176672
176715
176716
176755
176691
176747
176785
176731
176682
176580
176589
176611
176671
176751
176805
176829
176802
176788
176719
176616
176607
176696
176721
176756
176733
176753
176811
176781
176785
176682
176678
176705
176764
176753
176731
176808
176807
176817
176773
176711
176769
176623
176558
176486
176501
176662
176880
176900
176914
176827
176798
176815
176801
176680
176638
176691
176737
176718
176718
176677
176708
176770
176785
176718
176699
176754
176698
176718
176715
176674
176719
176697
176679
176684
176641
176672
176703
176665
176677
176689
176732
176713
176719
176688
176638
176687
176640
176620
176726
176724
176787
176821
176781
176750
176720
176665
176716
176739
176705
176661
176684
176692
176728
176750
176760
176812
176809
176798
176740
176672
176651
176711
176730
176687
176658
176734
176781
176754
176739
176663
176751
176742
176720
176773
176746
176787
176786
176718
176700
176701
176668
176626
176639
176672
176728
176882
176949
176918
176893
176778
176720
176748
176806
176858
176800
176866
176889
176909
176818
176762
176797
176843
176773
176732
176775
176940
176981
176979
176947
176831
176794
176796
176824
176865
176795
176758
176880
176971
176991
176996
176927
176890
176857
176899
176895
176982
177010
177013
176982
176888
176945
176920
176843
176857
176932
177007
176971
176954
176921
176875
176897
176866
176862
176850
176819
176923
177017
177097
177039
176868
176859
176808
176808
176895
176910
177017
177100
177091
176983
176878
176871
176925
176867
176834
176872
176996
177005
176968
177029
176963
176971
177015
176994
176926
176904
177017
177046
177009
177024
177014
177025
177112
177165
177177
177171
177273
177257
177301
177311
177135
177039
177015
176953
176952
176899
176838
176831
176792
176601
176515
176553
176600
176660
176734
176736
176780
176779
176790
176861
176837
176814
176756
176795
176878
176916
177010
177037
177085
177128
177043
176983
176950
176929
176960
176982
177001
177037
177031
177087
177032
177022
177021
177009
177038
176927
176906
176959
177037
177053
177018
177052
177050
177108
177129
177051
177069
177054
177086
177074
176966
177000
177049
177090
177095
177071
177018
177085
177070
177080
177062
177105
177202
177179
177198
177172
177156
177154
177087
177131
177122
177138
177134
177150
177214
177199
177164
177157
177239
177273
177218
177202
177132
177132
177191
177228
177268
177276
177296
177217
177187
177210
177184
177220
177255
177228
177331
177418
177429
177376
177318
177344
177332
177240
177250
177290
177352
177414
177395
177356
177319
177355
177397
177411
177386
177311
177414
177504
177423
177346
177357
177391
177370
177275
177248
177239
177287
177363
177464
177352
177306
177358
177307
177265
177239
177255
177360
177425
177404
177390
177352
177327
177263
177247
177258
177266
177283
177309
177280
177238
177174
177230
177258
177204
177183
177229
177216
177213
177207
177220
177139
177181
177229
177287
177273
177300
177371
177375
177321
177264
177265
177294
177237
177181
177239
177293
177347
177244
177313
177343
177313
177315
177285
177287
177318
177341
177320
177395
177389
177331
177279
177300
177393
177362
177417
177387
177383
177313
177362
177445
177365
177440
177497
177450
177375
177320
177381
177467
177502
177478
177413
177442
177454
177448
177431
177385
177373
177431
177483
177446
177341
177436
177462
177466
177543
177489
177513
177579
177642
177610
177508
177535
177488
177480
177419
177333
177427
177609
177644
177577
177545
177552
177553
177491
177453
177494
177522
177562
177610
177670
177611
177633
177590
177566
177609
177548
177538
177535
177589
177638
177620
177629
177614
177575
177573
177531
177587
177586
177558
177569
177522
177572
177557
177578
177542
177501
177595
177712
177773
177790
177749
177690
177659
177574
177555
177581
177662
177598
177686
177711
177647
177689
177665
177663
177683
177687
177666
177695
177665
177665
177621
177661
177645
177609
177613
177601
177634
177653
177695
177720
177650
177627
177676
177670
177703
177684
177700
177762
177704
177718
177684
177689
177716
177726
177757
177698
177715
177761
177681
177666
177668
177775
177786
177751
177722
177703
177781
177771
177748
177754
177723
177775
177808
177814
177803
177710
177749
177727
177781
177795
177745
177788
177771
177839
177883
177758
177807
177866
177884
177904
177836
177898
177923
177852
177828
177809
177814
177863
177934
178024
177976
177945
177938
177921
177860
177827
177900
177865
177856
177941
177960
178028
177980
177939
177915
177947
178000
178008
177963
177921
177880
177953
177954
177977
178008
177923
177965
178018
177999
177992
177981
177998
177983
177945
177943
177964
177931
177963
177968
177987
177939
177933
177910
177908
177912
177889
177950
177984
177974
177987
178004
177991
178004
178051
178039
177981
178044
178040
177996
178001
177980
178109
178100
178095
178092
178101
178087
178064
178129
178248
178327
178352
178333
178358
178298
178248
178311
178302
178221
178128
178071
177998
177839
177750
177674
177619
177629
177614
177618
177634
177651
177732
177858
177921
177927
177985
178059
178004
178036
178056
177955
177962
178035
178057
178008
177978
178061
178107
178177
178186
178135
178172
178214
178194
178094
178014
178036
178010
178021
178157
178198
178205
178208
178179
178189
178141
178154
178176
178167
178181
178222
178240
178250
178243
178153
178098
178137
178140
178141
178124
178151
178205
178313
178230
178209
178189
178210
178201
178202
178262
178273
178371
178369
178326
178338
178281
178291
178361
178372
178326
178262
178295
178282
178256
178273
178229
178331
178395
178424
178443
178335
178396
178374
178286
178269
178257
178342
178404
178473
178512
178505
178506
178453
178478
178479
178408
178453
178453
178454
178475
178498
178527
178511
178440
178408
178387
178411
178394
178416
178438
178438
178550
178552
178537
178499
178429
178436
178398
178461
178511
178476
178451
178433
178380
178352
178367
178437
178456
178506
178539
178548
178548
178468
178422
178445
178385
178437
178396
178350
178343
178341
178433
178513
178475
178423
178365
178351
178344
178390
178419
178444
178437
178455
178438
178327
178267
178299
178395
178462
178466
178424
178401
178379
178352
178380
178337
178321
178268
178331
178352
178395
178506
178515
178448
178362
178296
178364
178400
178362
178375
178392
178451
178472
178479
178482
178408
178392
178387
178450
178507
178510
178530
178501
178473
178479
178399
178375
178422
178484
178512
178450
178544
178506
178475
178496
178437
178468
178490
178528
178536
178576
178604
178604
178598
178531
178475
178509
178530
178524
178532
178599
178669
178664
178625
178561
178496
178523
178501
178563
178607
178599
178597
178585
178578
178547
178560
178580
178584
178571
178618
178601
178597
178644
178636
178670
178636
178659
178680
178640
178605
178554
178663
178668
178678
178654
178574
178612
178578
178612
178726
178728
178736
178786
178774
178698
178621
178606
178627
178598
178623
178621
178688
178769
178748
178695
178626
178609
178630
178673
178690
178655
178662
178742
178727
178654
178633
178659
178703
178733
178697
178667
178686
178676
178652
178755
178807
178774
178704
178742
178797
178730
178747
178758
178751
178727
178714
178720
178698
178737
178751
178712
178781
178775
178768
178746
178678
178681
178715
178715
178763
178744
178783
178807
178770
178706
178652
178742
178733
178693
178769
178766
178791
178796
178869
178869
178805
178834
178895
178929
178910
178822
178844
178806
178815
178798
178821
178875
178843
178873
178952
178872
178925
178954
178951
178904
178763
178761
178785
178745
178779
178796
178793
178903
178851
178846
178867
178868
178896
178927
178929
178912
178966
178977
178962
178935
178899
178916
178986
179007
178986
178963
179045
179044
179053
178974
178912
178897
178887
178928
178945
178970
178989
178997
178981
178938
178870
178863
178912
178909
178925
178899
178933
178961
178949
178904
178885
178948
178966
179015
178972
178836
178905
179006
178984
178951
178945
178957
178982
179047
179092
179031
179030
179007
179027
178993
178939
178911
178891
178970
179074
179096
179122
179147
179170
179191
179073
179066
179114
179132
179162
179175
179254
179318
179311
179301
179300
179359
179353
179289
179294
179281
179220
179117
178985
178859
178729
178723
178815
178859
178824
178775
178792
178776
178744
178775
178752
178781
178817
178895
178986
178939
179010
179061
179139
179138
179175
179229
179118
179092
179096
179108
179129
179067
179101
179098
179071
179054
179040
179082
179165
179240
179249
179214
179172
179168
179137
179161
179111
179070
179121
179111
179120
179207
179306
179262
179120
179117
179164
179168
179209
179204
179249
179304
179264
179230
179157
179139
179194
179214
179227
179262
179304
179309
179306
179231
179120
179081
179164
179256
179302
179256
179296
179281
179382
179367
179295
179195
179167
179303
179365
179292
179339
179353
179358
179307
179290
179274
179263
179262
179283
179277
179359
179415
179415
179366
179324
179314
179353
179392
179443
179377
179479
179471
179432
179464
179375
179337
179347
179438
179476
179431
179487
179501
179514
179451
179386
179380
179387
179398
179428
179430
179473
179450
179416
179347
179263
179290
179302
179358
179365
179411
179495
179482
179459
179410
179356
179354
179361
179379
179364
179355
179432
179511
179537
179482
179367
179342
179316
179306
179369
179402
179416
179376
179424
179385
179309
179321
179338
179354
179345
179342
179380
179364
179389
179361
179327
179372
179431
179446
179466
179405
179417
179434
179406
179442
179415
179405
179350
179340
179402
179398
179423
179414
179418
179447
179445
179390
179370
179377
179478
179500
179539
179481
179397
179369
179419
179442
179410
179468
179498
179511
179557
179531
179519
179475
179394
179413
179447
179495
179518
179498
179458
179489
179510
179510
179416
179432
179429
179445
179469
179428
179500
179546
179517
179499
179515
179518
179500
179492
179564
179567
179584
179616
179586
179587
179546
179451
179498
179474
179453
179478
179583
179615
179586
179562
179527
179536
179521
179575
179601
179572
179653
179603
179583
179578
179552
179581
179539
179506
179459
179470
179611
179614
179562
179629
179649
179653
179589
179611
179674
179580
179589
179636
179649
179684
179628
179610
179563
179567
179588
179599
179679
179706
179655
179691
179560
179524
179551
179517
179526
179565
179695
179704
179728
179711
179631
179587
179597
179665
179743
179752
179751
179712
179729
179680
179515
179503
179540
179675
179702
179668
179665
179674
179692
179697
179667
179680
179631
179608
179651
179711
179818
179769
179720
179652
179590
179617
179601
179620
179641
179678
179675
179722
179771
179738
179664
179730
179708
179690
179686
179683
179762
179775
179732
179706
179639
179704
179788
179834
179761
179702
179738
179731
179787
179775
179713
179657
179641
179639
179755
179793
179794
179845
179854
179809
179700
179710
179752
179797
179807
179772
179797
179796
179764
179765
179730
179766
179810
179802
179855
179887
179933
179907
179905
179901
179835
179870
179881
179829
179840
179800
179936
179965
179946
180083
179958
179818
179799
179777
179775
179789
179913
179903
179890
179890
179830
179862
179860
179871
179895
179885
179934
179978
179962
179960
179914
179861
179834
179858
179875
179839
179911
179959
179961
179913
179912
179932
179904
179920
179947
179879
179964
180054
180036
180067
180037
180001
179951
179902
179928
179941
180030
180069
180099
180112
180112
180181
180218
180265
180268
180206
180274
180332
180336
180298
180227
180195
180126
180058
179965
179817
179758
179804
179725
179703
179652
179601
179601
179685
179720
179723
179797
179848
179934
179960
179910
179919
179995
180054
180054
180047
180091
180085
180062
180024
179956
180016
180093
180109
180131
180118
180145
180211
180221
180179
180087
180075
180079
180104
180103
180063
180118
180210
180172
180159
180122
180118
180084
180117
180146
180047
180095
180233
180269
180251
180129
180140
180115
180112
180170
180101
180103
180160
180224
180166
180114
180204
180302
180265
180288
180247
180322
180301
180287
180244
180207
180160
180237
180314
180327
180281
180327
180307
180277
180300
180233
180253
180220
180215
180225
180207
180287
180292
180303
180336
180286
180330
180300
180292
180296
180234
180338
180413
180345
180304
180324
180390
180471
180486
180400
180306
180321
180322
180317
180353
180423
180505
180436
180437
180432
180332
180348
180397
180396
180347
180310
180340
180353
180350
180293
180221
180309
180363
180405
180408
180376
180372
180350
180322
180289
180248
180272
180252
180178
180126
180145
180174
180189
180310
180342
180291
180283
180312
180303
180272
180233
180280
180208
180149
180167
180178
180300
180348
180277
180275
180231
180238
180193
180158
180184
180183
180257
180251
180247
180271
180231
180294
180284
180263
180235
180159
180195
180221
180252
180275
180207
180262
180309
180326
180198
180145
180191
180259
180277
180275
180205
180260
180217
180188
180228
180318
180363
180359
180368
180291
180218
180288
180315
180318
180283
180256
180279
180319
180334
180359
180355
180368
180332
180271
180332
180266
180325
180345
180325
180350
180314
180324
180333
180283
180302
180221
180278
180329
180357
180361
180338
180382
180358
180275
180249
180251
180273
180356
180390
180407
180377
180371
180363
180315
180284
180242
180291
180332
180293
180276
180299
180297
180353
180390
180429
180326
180334
180374
180322
180302
180300
180381
180415
180395
180382
180339
180320
180337
180395
180407
180312
180330
180325
180209
180137
180179
180263
180320
180380
180360
180383
180370
180318
180360
180317
180179
180189
180262
180354
180388
180336
180317
180246
180316
180321
180279
180345
180372
180351
180315
180287
180308
180287
180236
180207
180192
180198
180225
180253
180290
180226
180269
180230
180233
180196
180159
180213
180226
180241
180292
180272
180295
180258
180256
180235
180191
180235
180246
180248
180233
180186
180259
180237
180296
180290
180279
180304
180344
180341
180303
180188
180219
180257
180280
180304
180219
180219
180248
180229
180226
180181
180195
180223
180217
180238
180277
180335
180383
180369
180305
180290
180342
180298
180261
180281
180220
180218
180253
180303
180324
180364
180362
180300
180251
180254
180271
180328
180310
180302
180300
180310
180320
180240
180170
180167
180154
180201
180309
180344
180301
180222
180251
180213
180216
180264
180143
180148
180249
180324
180305
180256
180292
180301
180258
180231
180136
180194
180224
180262
180279
180267
180199
180148
180080
180089
180127
180208
180260
180255
180211
180141
180136
180231
180241
180217
180168
180235
180278
180277
180296
180302
180354
180386
180348
180329
180304
180342
180403
180520
180513
180395
180390
180330
180249
180241
180185
180149
180117
180033
179943
179820
179715
179696
179867
179809
179723
179746
179809
179942
180092
180108
180073
180075
180078
180095
180106
180117
180083
180114
180153
180117
180184
180224
180172
180151
180062
180056
180126
180233
180255
180219
180194
180220
180173
180124
180090
180145
180137
180203
180236
180116
180140
180169
180187
180137
180089
180153
180139
180164
180245
180226
180262
180300
180289
180260
180171
180247
180288
180252
180175
180157
180228
180226
180089
180055
180065
180210
180194
180198
180183
180121
180162
180179
180200
180122
180041
180047
180113
180194
180234
180195
180174
180211
180203
180183
180130
180162
180198
180219
180222
180207
180323
180314
180283
180236
180195
180259
180279
180298
180292
180207
180217
180200
180202
180194
180195
180222
180182
180255
180252
180273
180266
180314
180294
180211
180141
180200
180249
180186
180235
180184
180172
180156
180082
180105
180081
180167
180247
180248
180179
180108
180132
180139
180126
180100
180050
180075
180087
180101
180112
180090
180090
180050
180026
180046
179946
179946
179928
179943
180063
180036
180049
180105
180031
179970
179910
179914
179981
180003
179961
179957
180000
179963
179923
179934
179909
179896
179907
179972
179977
179916
179941
179970
179916
179858
179793
179845
179873
179916
179964
179917
179854
179849
179871
179810
179821
179912
179886
179914
179952
179850
179867
179875
179880
179819
179736
179814
179901
179867
179907
179849
179863
179908
179889
179916
179877
179848
179778
179817
179906
179931
179912
179897
179845
179837
179778
179775
179793
179817
179870
179837
179846
179932
179909
179827
179731
179720
179752
179763
179764
179846
179878
179825
179782
179753
179679
179722
179773
179793
179807
179868
179899
179843
179758
179703
179642
179649
179708
179805
179873
179821
179858
179821
179795
179782
179750
179785
179759
179747
179719
179707
179706
179719
179714
179737
179699
179710
179701
179728
179781
179699
179675
179704
179697
179647
179666
179723
179711
179640
179630
179665
179718
179724
179700
179745
179707
179635
179634
179600
179702
179690
179753
179784
179730
179656
179573
179637
179696
179695
179716
179696
179700
179685
179643
179546
179535
179596
179629
179698
179726
179681
179659
179654
179643
179571
179498
179558
179661
179690
179711
179628
179621
179588
179613
179584
179550
179590
179593
179622
179677
179644
179678
179698
179639
179578
179571
179590
179614
179599
179574
179580
179622
179593
179593
179631
179474
179500
179541
179554
179652
179624
179612
179645
179651
179597
179530
179600
179589
179580
179627
179613
179647
179642
179566
179510
179555
179573
179599
179601
179608
179586
179590
179634
179667
179660
179607
179592
179597
179597
179592
179574
179675
179594
179616
179575
179517
179594
179569
179637
179679
179567
179602
179654
179656
179694
179590
179559
179565
179629
179693
179657
179650
179664
179617
179567
179497
179553
179581
179545
179530
179566
179603
179616
179591
179601
179551
179597
179556
179541
179539
179550
179600
179591
179523
179444
179411
179430
179460
179476
179555
179608
179621
179568
179583
179520
179466
179540
179569
179577
179557
179557
179543
179580
179549
179495
179558
179572
179576
179595
179625
179612
179669
179637
179691
179738
179710
179823
179865
179810
179798
179772
179850
179792
179721
179644
179536
179500
179508
179331
179182
179176
179193
179155
179227
179226
179170
179186
179245
179340
179399
179389
179418
179459
179439
179421
179389
179411
179445
179467
179584
179558
179520
179497
179489
179423
179445
179501
179527
179494
179567
179524
179558
179567
179497
179395
179384
179437
179513
179522
179539
179530
179627
179644
179662
179614
179511
179521
179542
179595
179604
179594
179623
179568
179549
179510
179440
179490
179531
179542
179522
179528
179601
179627
179628
179617
179533
179505
179460
179464
179545
179560
179590
179637
179543
179526
179494
179543
179572
179597
179606
179586
179614
179662
179632
179593
179572
179546
179525
179564
179634
179646
179679
179615
179639
179645
179527
179579
179583
179540
179588
179626
179654
179731
179745
179722
179646
179649
179672
179660
179653
179638
179696
179712
179728
179724
179678
179765
179739
179667
179649
179640
179719
179699
179684
179707
179663
179711
179698
179669
179681
179662
179675
179585
179546
179580
179597
179680
179752
179665
179604
179618
179661
179636
179648
179640
179560
179551
179592
179594
179636
179631
179712
179691
179709
179656
179567
179575
179621
179626
179675
179647
179603
179593
179623
179621
179541
179546
179597
179600
179629
179649
179639
179642
179607
179593
179571
179554
179487
179485
179524
179499
179566
179617
179594
179563
179565
179663
179671
179647
179590
179603
179678
179670
179702
179639
179584
179590
179575
179566
179576
179623
179693
179695
179617
179596
179620
179656
179633
179618
179610
179597
179670
179722
179648
179577
179526
179523
179538
179634
179613
179552
179629
179607
179626
179667
179588
179640
179662
179696
179640
179630
179717
179715
179670
179706
179621
179600
179615
179611
179536
179525
179603
179620
179690
179653
179603
179660
179674
179689
179695
179647
179595
179563
179618
179612
179600
179647
179634
179628
179630
179572
179580
179638
179629
179648
179659
179713
179719
179690
179675
179647
179710
179639
179647
179667
179574
179530
179534
179642
179714
179641
179672
179724
179710
179636
179625
179682
179660
179631
179611
179535
179617
179740
179708
179670
179599
179578
179558
179536
179557
179601
179712
179695
179709
179640
179575
179612
179663
179704
179723
179641
179633
179617
179565
179583
179596
179523
179569
179670
179735
179672
179715
179667
179667
179648
179632
179641
179582
179559
179507
179515
179686
179753
179708
179781
179776
179730
179621
179617
179608
179538
179601
179638
179634
179588
179620
179660
179660
179727
179777
179703
179715
179634
179589
179580
179559
179603
179697
179687
179644
179638
179711
179764
179783
179735
179672
179697
179663
179676
179681
179623
179728
179749
179741
179732
179689
179640
179572
179649
179718
179716
179798
179819
179807
179808
179696
179698
179670
179604
179632
179637
179755
179833
179808
179833
179764
179714
179705
179692
179717
179782
179851
179841
179866
179806
179785
179779
179784
179727
179663
179696
179748
179687
179724
179790
179733
179704
179690
179714
179786
179708
179749
179829
179822
179814
179688
179646
179670
179720
179745
179741
179775
179785
179764
179790
179826
179808
179733
179660
179667
179649
179687
179729
179803
179847
179810
179809
179793
179784
179795
179765
179790
179732
179783
179784
179782
179867
179858
179880
179952
179980
180131
180188
180163
180101
180004
179969
179971
179980
179911
179835
179857
179794
179650
179555
179484
179457
179463
179455
179421
179409
179421
179472
179500
179564
179586
179647
179611
179606
179708
179793
179889
179918
179911
179859
179768
179756
179740
179734
179760
179744
179854
179787
179792
179867
179807
179785
179817
179838
179900
179839
179851
179836
179857
179845
179845
179846
179881
179862
179920
179892
179923
179910
179891
179864
179859
179908
179881
179897
179927
179878
179880
179872
179881
179902
179881
179840
179814
179861
179930
179887
179876
179895
179933
179955
179983
179982
180006
179968
179893
179894
179892
179879
179969
179950
179962
179921
179916
179913
179966
179949
179999
180028
180026
179939
179948
180010
180008
179977
179957
179979
180064
180115
180107
180079
180051
180010
179993
179990
179923
179917
180067
180108
180090
180129
180170
180228
180108
180034
180034
180002
180057
180097
180137
180112
180081
180101
180099
180058
180064
180040
180118
180123
180068
180056
180021
179985
179987
179960
179982
179967
180005
180080
180074
179996
180005
180042
180000
179977
180026
179925
179939
179964
180050
180086
180061
179996
179970
179980
180013
180002
180074
180155
180078
180062
180016
180001
179991
179998
180015
179969
179951
180012
180002
180041
180043
180009
179975
179975
180016
179995
180054
180109
180033
180037
179992
180025
180013
180025
180019
179972
179991
179965
180017
179999
180004
180065
180044
180026
180053
180008
179989
180049
180101
180103
180101
180100
180074
180059
180049
179981
179974
180040
180099
180140
180130
180175
180130
180109
180094
180039
180115
180119
180177
180172
180058
180068
180129
180073
180010
179961
179946
180090
180187
180198
180165
180186
180153
180096
180038
180014
180098
180162
180215
180185
180112
180099
180104
180081
180123
180155
180213
180211
180164
180111
180084
180106
180118
180104
180107
180085
180114
180065
180065
180046
180004
180055
180073
180137
180180
180110
180074
180074
180087
180136
180164
180144
180081
180024
180003
179940
179971
180108
180206
180177
180095
180110
180138
180090
180157
180095
180110
180164
180206
180220
180104
180063
180056
180037
180031
179987
180066
180097
180185
180260
180216
180194
180196
180177
180027
179933
179991
180057
180046
180031
180015
180075
180081
180129
180133
180098
180095
180110
180125
180128
180095
180083
180058
180074
180090
180065
180070
180096
180173
180252
180202
180206
180164
180080
180017
179949
180050
180161
180239
180239
180185
180189
180170
180130
180081
180045
180061
180134
180181
180159
180072
180084
180137
180115
180047
180045
180141
180206
180229
180219
180175
180180
180149
180097
180054
180088
180170
180158
180220
180252
180215
180238
180229
180161
180161
180056
180112
180157
180148
180129
180166
180194
180161
180140
180135
180078
180130
180210
180161
180189
180222
180282
180386
180402
180351
180258
180269
180325
180323
180299
180238
180253
180263
180242
180281
180234
180243
180261
180302
180300
180236
180262
180255
180180
180127
180069
180137
180153
180221
180303
180282
180264
180271
180249
180251
180227
180275
180339
180339
180341
180248
180283
180295
180240
180232
180187
180207
180294
180337
180272
180239
180329
180295
180211
180134
180243
180316
180303
180293
180345
180287
180254
180244
180249
180260
180280
180361
180382
180370
180466
180446
180464
180449
180469
180496
180528
180595
180550
180542
180428
180356
180316
180244
180151
180062
179943
179898
179848
179913
180025
179999
180014
180018
180085
180081
180002
180037
180116
180233
180244
180172
180255
180328
180337
180329
180333
180379
180340
180336
180320
180266
180293
180260
180303
180256
180221
180298
180325
180389
180464
180401
180445
180405
180356
180334
180291
180301
180309
180353
180392
180450
180481
180421
180357
180333
180343
180418
180483
180516
180480
180438
180445
180444
180419
180396
180387
180454
180421
180384
180430
180425
180413
180336
180324
180460
180519
180497
180441
180404
180492
180477
180508
180552
180483
180467
180410
180453
180484
180531
180531
180464
180530
180504
180530
180496
180480
180547
180556
180604
180656
180542
180527
180538
180544
180561
180482
180503
180593
180642
180622
180574
180581
180567
180588
180617
180613
180605
180650
180670
180658
180578
180625
180625
180569
180545
180554
180556
180552
180646
180702
180594
180614
180619
180516
180503
180499
180556
180504
180590
180614
180600
180609
180541
180483
180508
180454
180488
180454
180477
180537
180540
180520
180517
180481
180423
180425
180486
180472
180529
180638
180625
180607
180517
180506
180558
180488
180535
180556
180479
180442
180402
180499
180508
180494
180460
180462
180508
180610
180584
180561
180501
180520
180516
180448
180405
180433
180565
180560
180554
180578
180555
180547
180501
180490
180504
180493
180554
180559
180585
180651
180589
180591
180596
180539
180536
180474
180564
180604
180624
180692
180704
180697
180679
180656
180554
180520
180505
180507
180538
180534
180505
180563
180561
180601
180640
180658
180655
180595
180599
180574
180581
180645
180637
180637
180663
180573
180577
180630
180680
180737
180751
180773
180749
180726
180678
180648
180675
180672
180667
180708
180641
180649
180712
180598
180572
180529
180533
180562
180685
180717
180677
180683
180662
180677
180692
180623
180601
180636
180631
180631
180608
180694
180751
180743
180766
180667
180700
180719
180732
180780
180721
180672
180682
180682
180702
180724
180676
180673
180714
180760
180700
180698
180709
180724
180664
180554
180539
180624
180727
180776
180637
180605
180597
180668
180616
180519
180544
180606
180714
180766
180754
180749
180719
180704
180662
180621
180672
180691
180661
180638
180674
180707
180698
180711
180726
180671
180620
180625
180681
180739
180749
180758
180766
180721
180698
180636
180626
180602
180620
180691
180663
180707
180697
180713
180681
180636
180683
180718
180777
180810
180722
180682
180651
180718
180712
180687
180725
180728
180734
180750
180730
180775
180782
180638
180614
180660
180679
180740
180831
180815
180824
180812
180765
180714
180726
180650
180709
180687
180665
180700
180738
180824
180850
180891
180780
180675
180748
180755
180741
180735
180715
180726
180782
180830
180770
180654
180721
180783
180782
180840
180834
180831
180861
180915
180888
180812
180793
180753
180812
180878
180835
180839
180849
180850
180804
180689
180707
180688
180696
180736
180780
180811
180828
180845
180861
180802
180816
180834
180859
180871
180807
180766
180784
180799
180803
180758
180817
180791
180792
180857
180892
180869
180905
180885
180858
180800
180808
180801
180829
180838
180841
180853
180860
180801
180782
180704
180752
180823
180820
180866
180830
180876
180882
180886
180955
180873
180919
181024
181085
181137
181178
181231
181248
181162
181033
180991
181010
180959
180856
180822
180725
180623
180556
180540
180494
180461
180469
180431
180541
180572
180600
180676
180720
180722
180755
180687
180682
180737
180795
180774
180792
180910
180929
180903
180836
180737
180792
180856
180847
180850
180891
180964
180960
180968
180902
180815
180808
180828
180892
180946
180908
180947
180928
180914
180921
180879
180887
180893
180913
180865
180883
180931
180933
180964
180955
180895
180962
180973
181004
181023
180993
181062
181055
181009
180971
180880
180908
180874
180850
180886
180962
181015
181012
180938
180969
180877
180884
180934
180930
180940
180983
181105
181116
181141
181121
181058
181047
181064
181015
181006
180992
181008
181023
181045
181125
181120
181105
181057
181141
181129
181078
181142
181186
181141
181140
181089
181091
181073
181084
181126
181136
181133
181210
181212
181160
181086
181094
181084
181113
181101
181145
181301
181305
181243
181203
181071
181109
181073
181135
181201
181206
181170
181133
181126
181138
181035
181076
181097
181093
181168
181157
181155
181176
181116
181120
181000
180953
180936
180988
181034
181071
181137
181141
181083
181046
181008
181046
181031
181000
180984
180999
181075
181037
181023
181086
181041
181061
181023
181067
181041
181011
181045
181023
181020
181107
181037
180978
181028
181040
180953
180968
181047
181063
181056
181019
180968
180947
180911
180979
181041
180965
180989
181014
181091
181101
181031
181016
181106
181129
181082
181001
180987
181082
181099
181093
181065
181078
181102
181098
181067
181050
181089
181169
181088
181005
180974
181097
181114
181187
181144
181110
181192
181167
181087
181057
181011
181023
181058
181183
181247
181203
181189
181178
181134
181072
180999
181019
181033
181133
181200
181136
181100
181177
181279
181298
181154
181162
181184
181095
181033
181091
181179
181185
181259
181280
181188
181170
181209
181237
181195
181125
181115
181240
181238
181210
181175
181157
181245
181191
181219
181194
181268
181327
181329
181266
181226
181201
181170
181171
181232
181194
181197
181252
181222
181149
181110
181139
181206
181260
181260
181214
181270
181282
181279
181250
181180
181173
181185
181179
181147
181147
181198
181299
181346
181348
181243
181201
181189
181179
181164
181125
181179
181211
181276
181294
181252
181280
181310
181245
181217
181144
181240
181326
181284
181261
181197
181204
181215
181295
181299
181285
181345
181310
181280
181245
181148
181204
181254
181298
181341
181249
181222
181232
181249
181256
181250
181224
181135
181206
181288

[算法提取后的结构化特征]
# 由 EcgFeatureExtractor.extract() + toPromptText() 在手机端重建
# 注意: 本次测量为 raw 模式，本地算法未参与 DS 分析；此处重建仅作对照基线
#       raw 模式实际发给 DS 的是去趋势原始波形（见下方 [raw 模式发给 DS 的波形]）
# 注意: 用户 profile（年龄性别）未存入测量记录，手机端重建时为'未知'
#       助手如需年龄性别做医学判断，需用户单独提供

[用户属性]

[全局指标]
算法版本:v8
采样率:500Hz 时长:30.7s 总点数:15370
R波检测:32个 平均心率:64bpm 范围:54-75bpm
R波位置(样本索引):5,847,1003,1570,2204,2458,2771,3022,3570,4010,4410,4873,5337,5822,6524,6968,8127,8590,9122,9719,10345,10794,11194,11747,12206,12677,13107,13597,14075,14536,15027,15249
RR间期序列(ms，[*]为偏离均值>20%的异常间期，多为早搏/误检):[1684*] [312*] 1134 [1268*] [508*] [626*] [502*] 1096 880 800 926 928 970 [1404*] 888 [2318*] 926 1064 [1194*] [1252*] 898 800 1106 918 942 860 980 956 922 982 [444*]
RR差值序列(ms):-1372,822,134,-760,118,-124,594,-216,-80,126,2,42,434,-516,1430,-1392,138,130,58,-354,-98,306,-188,24,-82,120,-24,-34,60,-538
SDNN:90.2ms RMSSD:124.1ms pNN50:63.2%
QRS宽度(本地估测,ms):85±22 置信度:高置信
PR间期(本地估测,ms):190±53
QT间期(本地估测,ms):387 QTc(Bazett):399ms QTc(Fridericia):395ms 置信度:低置信
注:低置信间期为生理学先验值（腕表信号物理上限），判读时仅供参考，不应作为强证据
R波平均振幅:0.34mV
R波极性:负向(负向提示导联反接/位置异常)
T/R振幅比:1.15(正常0.1-0.5，<0.1低平，>0.5高尖)
ST段偏移(本地估测,mV):-0.039(正常±0.05，>0.1抬高，<-0.1压低)
信号质量:0.96 良好
噪声段:12.0-13.0s(噪声); 14.0-15.0s(噪声); 15.0-16.0s(噪声)

[节律判别特征]
R波可靠性:可信
RR变异系数:0.095(轻度不齐)
Poincaré散点形态:鱼雷形(轻度不齐)
短-长RR配对数(早搏代偿):0个

[逐秒分段]
时段(s)  R波  振幅范围(mV)  峰峰值(mV)  最大斜率(mV/s)  RMS(mV)
0.0-1.0  1  -1.02~1.19  2.20  171.50  0.59
1.0-2.0  1  -0.69~0.85  1.54  84.00  0.41
2.0-3.0  1  -0.39~0.40  0.79  86.50  0.17
3.0-4.0  1  -0.59~0.54  1.13  102.50  0.29
4.0-5.0  2  -0.69~0.66  1.35  98.50  0.38
5.0-6.0  1  -0.67~0.47  1.14  105.00  0.29
6.0-7.0  1  -0.69~0.81  1.50  101.50  0.33
7.0-8.0  1  -0.72~0.58  1.30  85.50  0.32
8.0-9.0  2  -0.84~0.79  1.63  89.50  0.32
9.0-10.0  1  -0.39~0.59  0.98  93.50  0.22
10.0-11.0  1  -0.58~0.69  1.27  96.00  0.30
11.0-12.0  1  -0.55~0.29  0.84  109.00  0.11
12.0-13.0  0  -0.45~0.33  0.78  98.00  0.10  ← 噪声段
13.0-14.0  2  -0.43~0.41  0.84  120.00  0.17  ← 短RR+代偿间隙(早搏可能)
14.0-15.0  0  -0.38~0.26  0.64  96.50  0.10  ← 噪声段
15.0-16.0  0  -0.45~0.36  0.81  77.50  0.10  ← 噪声段
16.0-17.0  1  -1.39~1.03  2.42  91.00  0.68
17.0-18.0  1  -0.59~0.81  1.41  104.50  0.39
18.0-19.0  1  -1.30~0.67  1.97  95.00  0.50
19.0-20.0  1  -1.51~2.26  3.77  93.00  1.10
20.0-21.0  1  -0.75~0.96  1.71  86.50  0.49
21.0-22.0  1  -0.93~0.71  1.64  77.00  0.42
22.0-23.0  1  -0.48~0.54  1.02  109.00  0.26
23.0-24.0  1  -0.74~0.61  1.35  91.00  0.36
24.0-25.0  1  -0.60~0.55  1.15  71.00  0.31
25.0-26.0  1  -0.60~0.40  1.00  82.50  0.25
26.0-27.0  1  -0.52~0.53  1.05  85.50  0.26
27.0-28.0  1  -0.46~0.25  0.71  88.50  0.10
28.0-29.0  1  -0.60~0.39  0.99  75.50  0.18
29.0-30.0  1  -0.73~0.34  1.07  72.00  0.19
逐秒RMS:0.593,0.412,0.174,0.290,0.378,0.292,0.334,0.324,0.315,0.222,0.303,0.108,0.099,0.169,0.099,0.098,0.683,0.388,0.496,1.095,0.485,0.419,0.256,0.360,0.309,0.247,0.256,0.103,0.176,0.192

[AI 解读]
# DeepSeek 返回的原始 JSON（未清洗，可能含 markdown 代码块包裹）
{
  "算法版本": "raw-v1(原始波形直传,未经本地算法)",
  "平均心率": 85,
  "最小心率": 60,
  "最大心率": 120,
  "心率范围": "60-120 bpm",
  "心率稳定性": "RR间期不规律,心率波动较大",
  "心率置信度": "低",
  "SDNN_ms": 65.0,
  "RMSSD_ms": 40.0,
  "pNN50_pct": 15.0,
  "HRV解读": "SDNN和RMSSD偏高,可能因运动伪差或早搏导致,自主神经张力评估不可靠",
  "HRV置信度": "低",
  "节律判断": "心律不齐待查",
  "节律依据": "RR序列变异系数>0.15,但未完全满足房颤4条件；存在大量运动伪差,无法准确区分病理性与生理性不齐",
  "Poincare形态": "复杂形（不规则散点,SD1/SD2比值异常）",
  "SD1_ms": 45.0,
  "SD2_ms": 75.0,
  "早搏提示": ["可疑早搏（短长配对出现,但受噪声干扰）"],
  "节律置信度": "低",
  "PR间期_ms": "数据不足,无法判断",
  "PR判断": "P波不可辨,无法测量",
  "PR置信度": "低",
  "QRS宽度_ms": 110,
  "QRS判断": "正常范围(80-120ms),但受噪声影响,精度有限",
  "QRS置信度": "中",
  "QT间期_ms": 380,
  "QTc_ms": 450,
  "QTcFridericia_ms": 420,
  "QTc判断": "正常范围(男<440,女<460)",
  "QTc置信度": "中",
  "间期测量说明": "R波可辨但噪声大,QRS/QT测量受基线漂移影响；T波终点定位困难；P波无法识别",
  "R波极性": "正向",
  "T波方向": "部分与R波同向,部分反向（噪声干扰）",
  "ST段": "无法判断（基线漂移严重）",
  "R波振幅评估": "相对值约300-900,部分段振幅异常增大（可能为运动伪差）",
  "信号质量": "中等",
  "噪声段": ["1.0-2.0s", "7.0-9.0s", "16.0-20.0s", "27.0-29.0s"],
  "异常提示": ["大量运动伪差,R波检测不可靠", "建议重新采集静态心电图"],
  "综合解读": "受试者为17岁男性,波形中存在大量运动伪差和基线漂移,导致R波检测和节律判断受限。平均心率约85bpm,但RR间期明显不规律,可能因噪声干扰或生理性窦性心律不齐。需注意大段负向波（如第19秒）可能为电极脱落或剧烈运动所致。由于信号质量不佳,所有间期和HRV指标仅供参考,不能用于临床诊断。",
  "健康建议": [
    "建议在静止状态下重新采集30秒ECG,保持手腕平稳",
    "如仍有不适,请就医行标准12导联心电图检查"
  ],
  "免责声明": "本报告基于腕表单导联ECG原始波形由AI直接分析生成,间期/HRV/形态均为AI从波形估测,未经本地算法与临床医师审核,仅供健康参考,不作为医疗诊断依据。如有不适请就医复查标准12导联心电图。"
}
