========== ECG 算法诊断包 ==========
测量时间: 2026-07-16 22:37:47
测量时间戳:1784212667710
采样率:500 Hz
数据点数:15310
时长:30.6 秒
分析方法:ds_flash_balanced
Tavily状态:未触发（仅 Max 档联网检索）

[原始 ECG 数据]
# 单位: mV×1000 整数（如 500 = 0.5mV，-1000 = -1.0mV）
# 采样率: 500 Hz，连续采样，无降采样无压缩
# 用途: 助手据此复现本地算法行为（基线漂移/噪声段/R波检测）
# 格式: 每行一个数值，行号=采样点索引（第1行=索引0，即 t=0.000s）
179617
179800
179608
179550
179547
179537
179642
179610
179555
179583
179507
179546
179455
179473
179438
179479
179617
179492
179443
179363
179382
179540
179729
179607
179526
179450
179379
179374
179308
179375
179417
179598
179645
179572
179576
179483
179451
179440
179566
179592
179634
179604
179508
179470
179418
179509
179451
179689
179745
179763
179630
179632
179583
179580
179518
179502
179646
179701
179839
179801
179706
179625
179569
179556
179638
179586
179853
179869
179740
179756
179758
179794
179736
179697
179628
179698
179834
179793
179743
179773
179711
179796
179710
179661
179779
179621
179663
179634
179706
179826
179724
179620
179569
179555
179661
179596
179560
179549
179689
179731
179703
179687
179606
179547
179530
179550
179693
179822
179620
179558
179485
179625
179645
179474
179401
179428
179459
179497
179662
179632
179517
179436
179394
179437
179415
179328
179372
179555
179572
179408
179252
179237
179261
179318
179343
179202
179315
179393
179404
179357
179314
179353
179311
179289
179155
179142
179221
179285
179416
179403
179233
179228
179219
179168
179163
179238
179202
179180
179121
179109
179164
179347
179298
179267
179293
179242
179096
179167
179107
179162
179147
179225
179123
179150
179205
179286
179351
179306
179203
179292
179257
179335
179489
179269
179167
179093
179146
179261
179265
179305
179335
179399
179325
179313
179253
179092
179205
179255
179206
179354
179234
179311
179405
179343
179281
179131
179195
179228
179208
179103
179084
179168
179263
179238
179177
179132
179245
179253
179291
179235
178985
179018
179060
179239
179236
179123
179192
179207
179229
179053
178950
179023
179099
179004
178972
179002
179069
178980
179014
179014
178968
179029
178980
178885
178951
178931
178989
178961
179114
179239
179323
179285
179254
179268
179138
179068
179175
179192
179130
179061
178925
178847
178727
178587
178475
178412
178362
178435
178495
178490
178558
178530
178503
178483
178519
178507
178537
178594
178675
178816
178835
178817
178883
178839
178813
178735
178751
178732
178763
178664
178648
178805
178949
178921
178733
178679
178745
178830
178872
178855
178752
178666
178648
178533
178632
178677
178745
178842
178875
178846
178699
178708
178590
178633
178645
178647
178843
178791
178720
178714
178572
178599
178749
178798
178809
178817
178655
178609
178597
178608
178635
178772
178725
178688
178533
178619
178623
178619
178607
178598
178623
178570
178591
178528
178552
178702
178754
178726
178709
178735
178707
178640
178684
178738
178650
178327
178452
178679
178792
178769
178718
178729
178573
178654
178668
178539
178552
178583
178579
178631
178499
178537
178449
178497
178685
178567
178336
178285
178299
178438
178540
178486
178399
178388
178393
178277
178315
178242
178121
178278
178181
178277
178311
178287
178290
178080
178127
178105
178150
178073
178060
178020
177921
177905
177975
178069
178041
178003
178053
177964
177914
177910
177944
177912
177919
177859
177752
177766
177912
178035
177982
177938
177925
177814
177702
177627
177802
177956
177897
177738
177787
177890
177806
177701
177744
177755
177658
177601
177769
177881
177815
177821
177942
177915
177867
177804
177743
177700
177743
177804
177895
177931
177912
177876
177783
177778
177957
178036
177898
177897
177860
177799
177689
177729
177889
177921
177914
177935
177867
177844
177786
177795
177768
177812
177821
177888
177967
177844
177775
177708
177755
177870
177837
177876
177857
177873
177856
177845
177668
177723
177697
177629
177736
177789
177843
177707
177749
177678
177744
177788
177770
177794
177616
177572
177668
177632
177898
177983
177792
177810
177686
177635
177612
177602
177683
177685
177642
177532
177512
177541
177682
177681
177653
177576
177567
177572
177630
177524
177522
177576
177516
177533
177521
177513
177585
177410
177554
177621
177595
177584
177607
177622
177648
177544
177500
177338
177526
177473
177547
177516
177334
177507
177474
177490
177598
177591
177530
177599
177574
177475
177502
177460
177302
177449
177457
177405
177516
177663
177763
177708
177543
177547
177593
177507
177449
177394
177423
177532
177695
177614
177571
177710
177752
177794
177696
177625
177603
177564
177571
177557
177463
177454
177510
177553
177629
177782
177800
177733
177629
177642
177589
177544
177422
177439
177484
177723
177801
177803
177830
177613
177520
177562
177591
177575
177494
177457
177568
177718
177767
177638
177616
177561
177549
177539
177588
177500
177520
177552
177509
177525
177692
177738
177699
177749
177635
177517
177537
177597
177607
177591
177503
177591
177731
177778
177674
177604
177771
177823
177800
177754
177625
177601
177803
177928
177915
177923
177960
178057
177852
177855
177914
177938
177967
177897
177799
177639
177604
177627
177577
177455
177370
177320
177334
177203
177141
177256
177508
177390
177436
177426
177488
177552
177684
177717
177764
177566
177667
177686
177623
177657
177700
177754
177745
177732
177762
177622
177700
177911
177884
177686
177702
177715
177755
177824
177798
177593
177600
177831
177966
177927
177822
177797
177774
177738
177730
177645
177718
177959
177918
177671
177674
177713
177900
177945
177807
177757
177752
177812
177860
177959
177918
177826
177762
177802
177876
177801
177719
177653
177738
177870
178015
178037
177924
177874
177862
177806
177874
177831
177857
177744
177702
177775
177961
177986
177995
178050
178043
178031
178037
178007
177895
177816
177839
177911
177985
178137
178170
178139
177935
177847
177849
177933
177954
178022
177904
177855
178005
177971
177960
177937
177710
177794
177984
178000
177893
177722
177771
177897
177786
177776
177785
177814
177709
177696
177667
177715
177633
177620
177707
177631
177558
177716
177670
177631
177598
177543
177544
177579
177602
177629
177499
177626
177628
177597
177621
177574
177688
177480
177558
177598
177566
177635
177506
177527
177582
177400
177267
177357
177695
177709
177702
177749
177687
177752
177663
177567
177545
177498
177335
177373
177483
177697
177913
177769
177686
177610
177657
177662
177621
177623
177629
177770
177775
177679
177589
177556
177603
177819
177894
177853
177829
177763
177680
177700
177640
177631
177632
177633
177811
177857
177693
177649
177638
177717
177867
177822
177804
177798
177780
177789
177785
177712
177706
177766
177820
177682
177789
177852
177818
177874
177764
177767
177802
177845
177802
177704
177786
177888
177939
177947
177721
177706
177718
177756
177592
177511
177559
177773
178058
178079
177893
177747
177844
177625
177639
177687
177743
177808
177731
177779
177799
177794
177815
177869
177870
177864
177795
177861
177800
177795
177801
177923
177909
177889
177847
177816
177892
177898
177956
177882
177849
177811
177730
177766
177847
177741
177809
177801
177886
177864
177867
177987
177918
177952
177902
177826
177820
177942
177936
177856
177816
177910
178003
178052
178030
178043
177936
177925
177958
177945
177981
178119
178073
177964
178000
177831
177999
177937
177985
178097
178052
178124
178069
178022
178033
177945
177950
178153
178173
178120
178202
178301
178126
178079
177966
178025
178227
178280
178339
178326
178184
178207
178259
178374
178281
178236
178458
178434
178382
178356
178349
178342
178481
178506
178359
178256
178354
178339
178093
178126
178131
178379
178499
178391
178306
178277
178314
178325
178236
178247
178226
178144
178244
178298
178494
178239
178260
178330
178363
178388
178406
178482
178374
178327
178123
178062
178063
178265
178432
178441
178363
178385
178457
178372
178343
178268
178288
178419
178484
178522
178391
178466
178579
178536
178679
178622
178547
178661
178670
178551
178451
178469
178434
178219
178100
178014
177996
177918
177993
178059
177956
178045
178033
178004
178063
178070
178160
178228
178164
178217
178180
178268
178206
178420
178582
178372
178477
178465
178372
178445
178421
178447
178331
178346
178325
178408
178426
178438
178441
178244
178304
178441
178573
178622
178576
178474
178457
178517
178473
178377
178281
178443
178514
178638
178631
178598
178581
178539
178529
178433
178333
178500
178538
178480
178515
178379
178424
178506
178583
178605
178484
178443
178466
178522
178557
178543
178612
178583
178608
178593
178490
178532
178605
178569
178681
178566
178454
178540
178632
178532
178580
178689
178744
178741
178628
178472
178591
178832
179019
178751
178618
178595
178611
178763
178746
178705
178628
178591
178622
178697
178639
178639
178594
178581
178733
178833
178646
178525
178549
178620
178684
178700
178543
178573
178463
178337
178484
178543
178547
178582
178434
178530
178549
178420
178339
178316
178334
178337
178462
178426
178393
178443
178491
178518
178367
178263
178371
178331
178171
178208
178191
178304
178398
178344
178346
178236
178248
178256
178342
178378
178351
178322
178227
178138
178158
178163
178204
178236
178393
178551
178409
178483
178427
178320
178182
178058
178140
178178
178163
178141
178254
178419
178443
178395
178293
178288
178431
178403
178352
178392
178333
178411
178347
178185
178191
178300
178279
178412
178473
178376
178378
178437
178417
178336
178327
178356
178386
178366
178388
178385
178476
178371
178356
178317
178361
178226
178278
178421
178498
178531
178370
178368
178393
178366
178322
178315
178225
178336
178436
178468
178310
178373
178166
178161
178287
178366
178352
178388
178400
178450
178317
178285
178346
178303
178381
178301
178309
178189
178253
178329
178339
178292
178299
178278
178277
178097
178144
178123
178214
178259
178207
178356
178421
178353
178403
178142
178170
178183
178205
178136
178193
178165
178163
178234
178165
178242
178202
178186
178189
178335
178153
178105
178148
178139
178407
178318
178211
178187
178206
178347
178202
178148
178147
178266
178303
178213
178159
178149
178257
178225
178244
178182
178164
178212
178172
178099
178151
178124
178082
178123
178210
178265
178251
178289
178260
178251
178109
178120
178229
178269
178371
178291
178285
178176
178195
178193
178283
178339
178340
178352
178156
178248
178305
178234
178200
178064
178132
178152
178241
178314
178230
178247
178221
178255
178298
178269
178309
178320
178281
178260
178291
178407
178406
178371
178251
178205
178231
178268
178251
178255
178220
178368
178431
178379
178203
178183
178201
178147
178161
178162
178174
178356
178412
178289
178300
178274
178069
178228
178232
178240
178228
178233
178229
178280
178397
178360
178316
178198
178196
178306
178169
178238
178178
178266
178298
178207
178232
178250
178366
178335
178213
178264
178356
178336
178326
178393
178520
178659
178568
178538
178539
178590
178600
178487
178312
178313
178412
178341
178275
178080
178037
178069
178003
177937
177857
177865
177905
177947
177793
177895
177960
178068
178136
178240
178263
178241
178196
178231
178329
178300
178362
178348
178318
178260
178139
178156
178342
178523
178531
178376
178318
178337
178413
178370
178304
178187
178187
178290
178278
178243
178220
178329
178383
178302
178466
178305
178330
178421
178329
178343
178225
178188
178240
178425
178466
178381
178384
178324
178300
178254
178301
178438
178429
178354
178279
178307
178263
178253
178290
178384
178418
178356
178361
178416
178320
178231
178288
178263
178189
178096
178344
178543
178500
178457
178379
178358
178407
178444
178440
178335
178445
178486
178407
178381
178500
178421
178422
178410
178498
178440
178310
178231
178267
178312
178310
178306
178444
178432
178400
178235
178207
178256
178353
178341
178242
178255
178238
178161
178157
178051
178069
178251
178391
178259
178156
177995
178087
178129
178087
178075
177967
178058
178073
178096
178188
178034
178017
177947
177997
177943
177953
177965
178044
177974
177981
177944
177948
177938
178015
177917
177992
177916
177891
177880
177808
177662
177851
177944
178035
178017
177891
177886
177852
177871
177973
178076
177973
177914
177905
177867
177802
177915
177972
178018
178021
177944
177950
177981
177895
177907
177902
177882
177975
177870
177919
177973
178065
178032
178022
177916
177802
177781
177934
178172
178151
178019
177991
177915
177927
177976
177903
178002
178069
178084
178004
177956
177904
177915
177930
177855
177763
177889
178109
178191
178051
177957
177874
177822
177859
177826
177801
177918
177938
177972
177945
177909
178002
177896
177896
177926
177892
177854
177725
177742
177799
177853
177843
177822
177853
177756
177745
177855
177824
177793
177854
177868
177815
177837
177847
177842
177687
177697
177712
177730
177658
177669
177755
177748
177681
177690
177599
177658
177833
177766
177672
177601
177771
177712
177643
177662
177641
177745
177821
177854
177729
177708
177555
177595
177603
177641
177704
177766
177749
177603
177520
177493
177537
177669
177613
177645
177706
177747
177632
177650
177663
177589
177678
177611
177580
177578
177585
177552
177567
177668
177583
177564
177620
177700
177800
177745
177514
177646
177629
177644
177690
177626
177550
177526
177645
177727
177539
177588
177637
177659
177727
177566
177544
177535
177600
177643
177578
177655
177753
177834
177667
177578
177559
177610
177499
177518
177543
177659
177573
177553
177487
177476
177432
177480
177561
177476
177561
177534
177538
177543
177591
177489
177482
177417
177450
177463
177425
177544
177586
177607
177511
177450
177451
177449
177446
177447
177420
177488
177441
177496
177428
177245
177417
177443
177400
177436
177468
177435
177455
177590
177504
177417
177631
177621
177609
177671
177641
177685
177747
177771
177657
177589
177612
177525
177496
177435
177375
177313
177270
177150
176885
176890
177026
176949
176836
176926
176964
176966
177173
177176
177201
177085
177103
177127
177216
177225
177206
177310
177356
177268
177229
177291
177357
177360
177352
177346
177307
177207
177260
177324
177397
177311
177357
177266
177231
177334
177359
177448
177454
177349
177374
177388
177392
177314
177238
177201
177329
177287
177189
177155
177261
177417
177452
177278
177319
177312
177405
177497
177369
177347
177283
177247
177209
177194
177288
177261
177144
177219
177366
177375
177327
177295
177237
177245
177161
177279
177189
177197
177304
177452
177511
177402
177307
177170
177145
177148
177175
177291
177267
177457
177444
177253
177358
177307
177248
177225
177246
177374
177373
177286
177261
177168
177153
177117
177203
177271
177293
177276
177288
177204
177120
177089
177131
177188
177223
177109
177061
177068
177097
177063
176975
176990
177154
177041
176910
176908
176876
176918
176939
176856
176989
176950
176895
176839
176699
176601
176631
176767
176798
176771
176867
176746
176722
176788
176780
176758
176604
176576
176653
176728
176887
176719
176657
176648
176602
176607
176550
176605
176742
176745
176795
176660
176636
176579
176607
176595
176664
176719
176676
176665
176491
176406
176525
176692
176715
176656
176541
176554
176732
176854
176735
176646
176626
176667
176603
176660
176619
176584
176629
176728
176798
176768
176646
176646
176672
176741
176694
176675
176630
176632
176621
176644
176651
176665
176756
176761
176652
176866
176875
176659
176646
176598
176557
176578
176818
176835
176666
176638
176657
176605
176599
176532
176589
176578
176590
176595
176562
176732
176643
176627
176700
176727
176807
176793
176685
176567
176411
176464
176510
176652
176634
176522
176634
176668
176677
176602
176588
176544
176623
176653
176487
176362
176385
176295
176397
176444
176530
176610
176564
176550
176417
176380
176503
176573
176430
176339
176211
176225
176289
176476
176590
176595
176548
176438
176447
176438
176464
176499
176507
176388
176360
176240
176259
176315
176559
176622
176489
176359
176368
176413
176449
176309
176335
176333
176202
176242
176299
176437
176496
176429
176391
176353
176424
176339
176311
176331
176274
176455
176481
176479
176475
176315
176340
176442
176463
176376
176387
176377
176277
176254
176382
176486
176383
176402
176380
176310
176420
176557
176517
176452
176425
176384
176381
176451
176423
176360
176447
176559
176531
176553
176471
176394
176330
176356
176357
176583
176456
176494
176360
176251
176293
176384
176406
176405
176427
176336
176309
176367
176369
176397
176482
176429
176435
176378
176393
176355
176302
176438
176524
176500
176531
176377
176347
176259
176324
176420
176402
176315
176313
176407
176450
176304
176283
176328
176450
176437
176338
176364
176381
176484
176603
176588
176678
176666
176606
176515
176574
176519
176580
176588
176548
176335
176152
176295
176338
176111
175978
175914
175917
175887
175937
176029
175999
175959
175971
175968
176154
176397
176201
176250
176229
176245
176265
176228
176216
176353
176327
176206
176356
176480
176507
176326
176275
176331
176316
176285
176361
176254
176328
176322
176298
176369
176344
176212
176233
176263
176246
176387
176414
176456
176412
176481
176363
176245
176313
176264
176183
176287
176273
176179
176300
176360
176240
176295
176299
176332
176388
176359
176250
176256
176206
176160
176331
176248
176322
176318
176240
176253
176418
176417
176261
176287
176254
176181
176249
176141
176229
176232
176213
176375
176446
176447
176452
176352
176338
176401
176412
176310
176302
176324
176403
176139
176335
176502
176309
176316
176325
176345
176264
176272
176266
176332
176395
176227
176158
176118
176161
176186
176275
176228
176208
176125
176083
176097
176052
176203
176017
176155
176169
176051
175968
175854
175809
175871
175993
175985
176033
176045
175979
175949
175978
175961
175960
175995
175845
175742
175672
175748
175772
175834
175903
175850
175941
175850
175813
175748
175688
175772
175778
175671
175658
175691
175782
175800
175718
175638
175608
175707
175819
175812
175785
175663
175765
175797
175688
175693
175705
175744
175747
175697
175753
175692
175708
175842
175717
175742
175824
175753
175747
175736
175743
175824
175812
175782
175775
175792
175860
175870
175768
175821
175899
175746
175754
175676
175661
175774
175651
175765
175708
175824
175842
175820
175761
175743
175740
175845
175819
175922
175953
175840
175761
175666
175658
175604
175667
175788
175823
175992
175895
175927
175718
175668
175693
175556
175549
175573
175628
175805
175877
175745
175711
175661
175704
175619
175658
175648
175646
175733
175744
175746
175716
175649
175769
175570
175518
175462
175382
175521
175676
175699
175674
175609
175551
175487
175460
175422
175484
175620
175575
175517
175625
175553
175498
175512
175495
175386
175568
175537
175600
175635
175536
175487
175500
175523
175554
175449
175426
175362
175415
175423
175434
175573
175701
175584
175501
175444
175380
175358
175484
175479
175430
175486
175436
175448
175372
175299
175381
175436
175529
175458
175381
175297
175385
175517
175566
175590
175461
175453
175471
175442
175458
175463
175427
175336
175428
175671
175511
175497
175528
175502
175522
175471
175436
175311
175421
175479
175506
175515
175516
175565
175554
175543
175595
175464
175437
175387
175408
175416
175425
175449
175376
175370
175516
175392
175387
175420
175327
175445
175536
175496
175481
175317
175426
175402
175347
175350
175415
175404
175298
175305
175324
175327
175386
175383
175358
175303
175307
175419
175302
175283
175354
175228
175308
175395
175390
175332
175246
175397
175477
175538
175523
175505
175584
175589
175463
175446
175503
175646
175617
175733
175594
175486
175380
175269
175237
175253
175057
174983
175056
175083
174969
174946
174925
174946
174874
174858
174886
174875
175115
175103
175192
175191
175228
175255
175229
175165
175029
175059
175263
175353
175423
175512
175339
175295
175311
175324
175152
175180
175122
175094
175257
175358
175500
175347
175243
175343
175285
175297
175300
175247
175231
175216
175316
175439
175239
175232
175150
175189
175336
175501
175497
175335
175359
175187
175192
175305
175332
175431
175425
175359
175283
175251
175310
175237
175126
175125
175277
175335
175339
175409
175362
175332
175300
175244
175208
175287
175242
175272
175298
175258
175345
175279
175205
175328
175423
175460
175376
175317
175395
175424
175415
175292
175444
175314
175134
175176
175212
175254
175305
175224
175262
175294
175337
175289
175268
175308
175282
175268
175262
175268
175196
175068
175112
175141
175011
175093
175091
175122
175114
175009
175147
175132
175064
175028
174890
174946
174871
174782
174914
174974
175115
175099
174942
174856
174830
174946
174943
174996
174829
174862
174877
174785
174839
174869
174909
174882
174883
174811
174856
174832
174804
174819
174740
174718
174711
174871
174887
174816
174756
174787
174821
174641
174728
174792
174872
174909
174801
174694
174727
174870
174892
174861
174862
174812
174858
174836
174792
174776
174847
174830
174879
174893
174917
174774
174718
174674
174678
174839
174916
174930
174925
174842
174875
174899
174849
174849
174821
174972
174892
174786
174822
174774
174857
174919
174879
174922
174861
174799
174786
174862
174938
174924
174827
174774
174772
174809
174896
174827
174817
174794
174813
174831
174882
174858
174779
174842
174791
174776
174825
174852
174786
174766
174777
174799
174711
174648
174687
174817
174935
174880
174861
174862
174829
174748
174802
174808
174753
174764
174732
174719
174591
174549
174764
174757
174736
174706
174643
174679
174690
174639
174591
174673
174665
174871
174834
174728
174613
174579
174634
174570
174555
174584
174585
174632
174701
174788
174689
174656
174663
174645
174625
174678
174678
174563
174430
174422
174569
174635
174611
174619
174607
174646
174629
174655
174727
174684
174604
174587
174600
174575
174589
174664
174649
174841
174718
174656
174631
174695
174695
174668
174642
174635
174661
174663
174591
174599
174525
174628
174696
174665
174568
174446
174450
174535
174610
174641
174624
174577
174742
174802
174544
174480
174572
174636
174603
174596
174552
174736
174805
174712
174681
174546
174547
174506
174478
174535
174628
174698
174568
174489
174559
174533
174542
174498
174557
174637
174627
174704
174713
174647
174782
174769
174817
174690
174673
174727
174706
174714
174768
174652
174566
174609
174613
174493
174238
174107
174012
174118
174129
174162
174146
173804
173858
174037
174191
174461
174345
174268
174300
174339
174332
174381
174455
174351
174335
174395
174379
174457
174485
174555
174588
174540
174467
174411
174391
174505
174469
174503
174556
174424
174284
174277
174357
174478
174547
174571
174506
174407
174350
174448
174509
174437
174448
174410
174484
174524
174248
174273
174349
174509
174431
174349
174479
174472
174484
174423
174292
174303
174398
174421
174423
174407
174455
174561
174522
174446
174386
174358
174352
174320
174446
174484
174470
174460
174386
174421
174421
174525
174433
174488
174447
174418
174491
174445
174400
174390
174353
174405
174431
174471
174436
174393
174365
174402
174463
174369
174394
174423
174346
174335
174479
174423
174364
174349
174261
174272
174228
174195
174247
174162
174168
174158
174316
174321
174298
174205
174110
174095
174184
174132
174200
174163
174172
174079
173823
173838
173988
174179
174367
174121
173938
173929
174002
174014
173935
173859
173682
173744
173894
173947
174000
173940
173933
174009
174061
174018
173746
173830
173826
173789
173861
173715
173757
173790
173799
173830
173904
173898
173911
173900
173834
173764
173790
173763
173740
173795
173793
173826
173749
173805
173881
173823
173878
173860
173789
173809
173850
173836
173838
173868
173836
173743
173783
173726
173729
173813
173710
173762
173844
173932
173977
173880
173640
173707
173651
173844
173875
173676
173664
173661
173733
173717
173771
173737
173598
173492
173521
173768
173912
173876
173813
173822
173798
173713
173573
173536
173531
173624
173596
173657
173730
173681
173844
173742
173643
173501
173621
173692
173766
173639
173558
173545
173432
173527
173528
173607
173630
173600
173543
173516
173547
173445
173514
173565
173585
173476
173429
173418
173513
173389
173418
173390
173450
173486
173507
173564
173458
173386
173380
173429
173357
173367
173470
173441
173400
173486
173465
173558
173491
173373
173348
173359
173376
173369
173366
173342
173370
173400
173432
173480
173470
173394
173334
173378
173486
173379
173322
173338
173461
173526
173419
173357
173229
173193
173191
173325
173400
173455
173437
173451
173465
173454
173571
173334
173243
173354
173343
173284
173264
173205
173219
173306
173386
173457
173515
173445
173272
173235
173241
173323
173258
173299
173323
173364
173360
173311
173276
173272
173330
173317
173195
173167
173344
173308
173313
173205
173103
173214
173276
173303
173359
173258
173218
173083
173070
173075
173276
173468
173401
173356
173352
173359
173473
173441
173414
173360
173356
173466
173254
173291
173312
173348
173342
173287
173212
173022
173031
173067
172855
172723
172702
172580
172655
172629
172748
172934
172913
172853
172842
172879
172899
172920
173085
173120
173080
173055
173025
173110
173132
173071
173049
172972
173115
173186
173208
173139
173093
173069
173116
173152
173111
173031
173077
173100
173092
173080
172999
172985
173143
173098
172990
173036
173155
173088
173032
173010
172987
172997
173047
173123
173167
173171
173093
173068
173065
173103
173013
173055
172888
173058
173225
173118
173080
173023
173022
172928
173020
173030
173031
173089
173115
173047
173014
173048
173028
172995
172939
172999
173101
173060
173035
173013
173151
173169
173053
173098
173008
173087
173068
173058
172983
172976
172954
173091
173168
173152
173096
173041
172917
172894
172936
172822
172877
172933
173006
173160
173041
173019
172920
172824
172918
172907
172798
172778
172837
172889
172874
172820
172809
172745
172729
172712
172685
172776
172855
172814
172739
172722
172677
172584
172577
172647
172793
172721
172629
172681
172605
172516
172618
172793
172628
172555
172610
172605
172592
172540
172430
172495
172613
172619
172526
172488
172625
172713
172620
172489
172322
172345
172394
172422
172531
172586
172614
172629
172660
172643
172420
172485
172470
172466
172559
172495
172464
172455
172510
172511
172478
172502
172485
172575
172660
172514
172515
172563
172533
172511
172380
172451
172418
172385
172457
172532
172640
172607
172572
172508
172483
172391
172447
172301
172419
172405
172417
172461
172523
172425
172450
172446
172468
172544
172637
172541
172450
172462
172540
172468
172375
172410
172390
172469
172428
172352
172466
172532
172547
172423
172349
172359
172414
172326
172386
172447
172395
172347
172348
172353
172294
172393
172452
172337
172388
172341
172282
172263
172143
172208
172347
172317
172306
172457
172354
172273
172293
172254
172212
172250
172212
172225
172227
172250
172221
172263
172412
172403
172391
172277
172073
172142
172096
172095
172123
172228
172406
172447
172367
172276
172149
172078
172113
172107
172082
172201
172246
172225
172155
172184
172094
172061
172128
172255
172288
172272
172217
172228
172282
172292
172107
171963
172106
172156
172213
172209
172082
172028
172018
172130
172063
172070
172140
172119
172216
172105
172107
172021
172143
172134
172053
172016
171948
171990
172035
172052
172022
172171
172177
172099
171846
171870
171861
172007
172256
172166
172078
172137
172038
171948
172026
172094
172113
171955
171846
171875
172040
172120
172109
172070
172046
172197
172290
172225
172126
172077
172162
172431
172386
172284
172192
172167
172119
172051
171974
171874
171911
171957
171885
171784
171535
171457
171462
171517
171547
171524
171530
171671
171763
171735
171745
171806
171829
171939
171985
171879
171835
171863
171911
171977
171821
171804
171806
171905
172025
172005
171986
171961
171816
172018
171949
171833
171833
171845
171959
171913
172014
172007
171938
171786
171772
171884
171792
171785
171897
171956
172025
171987
171993
171757
171698
171736
171793
171903
171929
171956
171941
171920
172014
171954
171776
171794
171790
171825
171851
171777
171750
171737
171909
171985
171850
171953
171903
171869
171911
171762
171798
171954
171858
171897
171831
171887
171778
171749
171883
171884
171933
171992
172020
172032
171855
171801
171785
171836
171912
171904
171940
171896
171912
171812
171736
171835
171909
171996
171928
171899
171803
171797
171825
171870
171852
171795
171783
171830
171864
171819
171711
171748
171815
171801
171855
171775
171678
171617
171641
171596
171607
171605
171636
171670
171657
171639
171574
171627
171667
171531
171505
171549
171541
171530
171461
171650
171681
171532
171441
171396
171379
171620
171529
171463
171330
171376
171410
171508
171565
171603
171591
171585
171449
171405
171409
171431
171332
171331
171301
171470
171527
171428
171427
171530
171516
171438
171393
171276
171344
171314
171598
171581
171532
171542
171482
171409
171336
171385
171427
171370
171422
171557
171478
171496
171533
171421
171390
171466
171538
171535
171464
171409
171313
171253
171390
171404
171468
171478
171462
171497
171443
171320
171341
171415
171476
171483
171403
171393
171402
171463
171615
171547
171583
171475
171334
171300
171341
171368
171336
171422
171359
171569
171579
171454
171268
171328
171383
171455
171461
171342
171359
171334
171318
171359
171319
171464
171527
171389
171408
171372
171391
171406
171375
171287
171159
171318
171380
171221
171260
171418
171385
171366
171383
171293
171177
171315
171453
171371
171408
171293
171261
171331
171364
171342
171297
171226
171200
171323
171307
171241
171287
171322
171370
171411
171345
171293
171315
171240
171313
171131
171215
171234
171323
171423
171328
171303
171230
171183
171231
171283
171369
171363
171175
171137
171180
171161
171139
171113
171147
171128
171299
171359
171343
171274
171298
171256
171239
171188
171210
171119
171000
171188
171367
171518
171390
171301
171247
171230
171184
171216
171217
171190
171197
171192
171283
171306
171268
171302
171310
171280
171349
171400
171372
171373
171317
171433
171516
171469
171464
171273
171239
171245
171289
171369
171381
171245
171097
170985
170897
170898
170862
170880
170850
170894
170980
170834
170815
170796
170913
170976
171211
171177
171059
171149
171207
171167
171153
171014
171031
171134
171161
171156
171251
171331
171283
171320
171226
171248
171173
171250
171179
171223
171235
171119
171006
171203
171349
171313
171254
171249
171217
171233
171211
171308
171268
171138
171066
171105
171189
171056
171247
171454
171356
171282
171276
171275
171332
171166
171112
171050
171170
171219
171267
171329
171311
171309
171283
171116
171062
171029
171076
171155
171186
171325
171438
171497
171401
171310
171311
171247
171224
171219
171136
171098
171194
171226
171318
171246
171235
171283
171428
171360
171232
171241
171284
171264
171230
171131
171109
171148
171116
171103
171282
171332
171232
171314
171329
171313
171166
171144
171156
171207
171142
171243
171164
171161
171136
171133
171030
171011
171054
171043
171065
171101
171016
171032
170931
170742
170729
170957
171121
171131
171008
171038
170912
170818
170819
170943
170932
170848
170806
170920
170986
170943
170828
170870
170821
170851
170751
170861
170862
170755
170637
170672
170675
170857
170902
171089
170890
170763
170829
170792
170838
170770
170811
170742
170712
170696
170696
170649
170698
170840
170928
170947
170882
170857
170893
170833
170835
170693
170713
170798
170776
170772
170738
170630
170756
170759
170732
170733
170831
170844
170888
170921
170845
170830
170781
170747
170714
170662
170764
170836
170814
170803
170820
170889
170858
170795
170893
170706
170673
170674
170828
170704
170503
170503
170703
170893
170800
170726
170696
170648
170693
170808
170737
170663
170682
170633
170597
170522
170670
170709
170794
170763
170753
170629
170576
170499
170572
170579
170733
170781
170782
170639
170593
170586
170611
170534
170500
170580
170606
170723
170750
170610
170550
170531
170514
170594
170729
170630
170588
170532
170481
170599
170469
170463
170418
170566
170687
170666
170625
170620
170517
170598
170651
170638
170648
170497
170496
170409
170535
170564
170525
170629
170541
170616
170634
170523
170572
170584
170554
170577
170510
170466
170406
170382
170585
170561
170514
170509
170574
170557
170539
170580
170521
170472
170282
170330
170374
170446
170613
170599
170613
170525
170445
170483
170460
170437
170392
170346
170299
170316
170382
170539
170524
170352
170284
170295
170354
170269
170499
170567
170487
170454
170423
170591
170640
170710
170553
170562
170581
170605
170615
170582
170615
170475
170443
170380
170301
170178
170195
170164
170130
170079
169908
169907
169869
169867
169825
169816
169943
170025
170094
170065
169992
170173
170219
170300
170255
170277
170239
170130
170120
170179
170396
170637
170465
170303
170331
170289
170202
170238
170230
170143
170094
170277
170337
170334
170363
170192
170305
170338
170333
170385
170246
170161
170174
170234
170304
170182
170291
170382
170300
170217
170220
170293
170314
170213
170239
170258
170231
170304
170207
170066
170172
170279
170341
170374
170284
170215
170227
170273
170080
170145
170190
170320
170302
170290
170180
170099
170121
170116
170045
170102
170126
170154
170192
170226
170243
170333
170195
170126
170249
170245
170151
170222
170197
170186
170156
170158
170207
170170
170160
170222
170193
170325
170275
170147
170135
170061
170126
170106
170149
170090
170029
169993
169853
169936
170074
170106
170236
170234
170209
170037
169899
169963
169965
169930
169958
169905
169923
169960
169841
169868
169841
169941
169932
169912
169836
169736
169687
169779
169762
169781
169901
169903
169724
169753
169789
169763
169707
169925
170002
169985
169761
169694
169653
169704
169712
169608
169686
169695
169836
169833
169673
169792
169845
169768
169637
169582
169656
169741
169900
169811
169800
169724
169655
169703
169729
169668
169690
169685
169769
169707
169702
169710
169772
169766
169749
169726
169704
169758
169783
169679
169501
169593
169671
169674
169712
169729
169846
169933
169760
169744
169671
169591
169634
169654
169673
169684
169662
169671
169675
169634
169553
169743
169773
169757
169706
169570
169539
169566
169615
169777
169701
169579
169412
169535
169589
169657
169756
169765
169654
169592
169589
169533
169564
169663
169541
169542
169596
169547
169573
169560
169581
169633
169711
169657
169493
169355
169571
169560
169417
169418
169516
169506
169677
169682
169555
169369
169431
169523
169606
169632
169521
169449
169495
169342
169398
169386
169458
169435
169516
169596
169366
169381
169385
169575
169543
169417
169409
169444
169522
169485
169500
169534
169375
169427
169335
169316
169428
169465
169493
169484
169362
169360
169228
169229
169411
169477
169448
169435
169341
169402
169423
169441
169448
169274
169355
169282
169330
169500
169509
169525
169531
169534
169397
169282
169269
169426
169401
169528
169487
169441
169444
169448
169400
169344
169320
169404
169364
169379
169259
169221
169297
169342
169323
169333
169300
169318
169336
169376
169348
169256
169100
169142
169331
169411
169409
169265
169374
169340
169265
169213
169264
169319
169332
169385
169226
169081
169114
169269
169293
169323
169278
169315
169309
169236
169182
169208
169384
169389
169401
169368
169286
169392
169356
169455
169616
169592
169570
169605
169599
169356
169273
169427
169297
169207
169114
169048
168909
168984
168993
168853
168786
168851
168856
168829
168844
168919
168881
168986
168979
168885
168838
169170
169423
169240
169084
169001
169112
169254
169381
169366
169245
169232
169142
169124
169114
169178
169175
169150
169242
169237
169138
169255
169373
169368
169252
169216
169237
169140
169010
169153
169256
169280
169243
169225
169248
169158
169165
169233
169302
169297
169231
169278
169221
169178
169087
169078
169142
169291
169334
169288
169223
169233
169230
169279
169253
169125
169094
169204
169348
169314
169207
169176
169228
169328
169327
169220
169364
169325
169163
169217
169215
169182
169188
169152
169281
169363
169457
169412
169352
169325
169304
169270
169237
169250
169315
169210
169255
169356
169382
169377
169325
169294
169317
169194
169072
169112
169264
169341
169331
169196
169115
169094
169190
169363
169318
169252
169150
169147
169108
168982
168913
169122
169268
169307
169156
169047
168950
168974
169190
169340
169165
169092
169055
169035
168969
168933
169003
168995
169024
169069
168914
169009
169185
169124
169121
169017
168905
168909
168925
168948
168952
168932
169094
169056
169049
168958
168978
169030
169028
168981
168978
169005
168983
169009
168946
168909
168848
168861
168928
169108
169067
169101
169049
169121
169025
168855
168869
169023
169001
168972
169086
169154
169075
168987
168986
168944
169003
169062
169078
169113
169099
169209
169034
168900
169031
168999
168954
168990
169082
169073
169013
169020
168982
169068
169039
169015
169080
169111
169079
168940
168984
169059
169140
169057
169115
168939
168910
168797
168869
169091
169059
169036
169036
169010
169011
168958
169020
168971
168944
168847
168896
169132
169282
169121
168987
168911
168915
169005
168954
168769
168741
168992
169152
169067
168907
168877
168958
169037
169109
169012
169021
169014
168821
168806
168727
168754
168862
169002
169031
168937
168936
169007
168945
168904
168954
168941
168819
168819
168764
168786
168953
168869
168728
168710
168748
168834
168911
169022
168851
168965
168882
168975
168922
168866
168894
168766
168745
168748
168804
168902
168889
168974
168942
168939
168874
168780
168738
168875
168905
168928
168816
168754
168841
168846
168718
168641
168789
168853
168895
168833
168887
168905
168849
168826
168845
168790
168902
168963
168887
168879
168830
168892
168899
168811
168818
168927
169059
168990
168973
168888
168853
168917
168843
168766
168825
168800
168831
168860
168847
168829
168825
168850
168995
169006
168928
168866
168836
168851
168865
168842
168787
168815
169056
168872
168800
168739
168842
168776
168762
168798
168738
168786
168754
168766
168834
168816
168816
168759
168787
168774
168736
168809
168742
168731
168738
168723
168769
168914
168784
168783
168791
168872
168907
168837
168965
168900
168835
168792
168824
168947
168987
168994
169092
169128
169088
168914
169000
169031
169035
168953
168800
168747
168551
168331
168324
168409
168543
168514
168450
168459
168212
168239
168430
168546
168624
168526
168529
168630
168665
168672
168686
168819
168746
168825
168745
168725
168733
168782
168779
168717
168675
168697
168782
168777
168667
168650
168675
168665
168784
168806
168809
168741
168721
168665
168549
168639
168965
168984
168839
168829
168815
168862
168769
168620
168726
168682
168784
168780
168719
168742
168736
168826
168855
168766
168628
168735
168772
168807
168868
168795
168662
168685
168797
168881
168730
168579
168540
168692
168929
168974
168745
168859
168763
168808
168753
168679
168654
168632
168655
168601
168675
168802
168891
168783
168789
168718
168848
168787
168824
168717
168662
168741
168862
168938
168806
168583
168598
168675
168772
168756
168787
168813
168892
168682
168622
168523
168546
168583
168563
168607
168650
168779
168751
168670
168610
168520
168500
168507
168551
168613
168551
168523
168485
168453
168450
168437
168547
168584
168607
168656
168561
168556
168376
168332
168323
168319
168453
168623
168677
168522
168339
168345
168383
168414
168349
168300
168304
168397
168382
168414
168370
168372
168441
168374
168323
168315
168338
168401
168402
168416
168494
168509
168401
168319
168261
168218
168264
168342
168255
168346
168393
168505
168528
168508
168384
168288
168366
168398
168464
168474
168391
168325
168314
168369
168388
168331
168411
168440
168470
168310
168290
168441
168536
168471
168358
168353
168449
168362
168404
168404
168301
168234
168390
168446
168388
168362
168521
168379
168358
168387
168383
168434
168469
168433
168362
168225
168293
168279
168278
168270
168356
168570
168562
168291
168224
168209
168285
168334
168315
168422
168385
168455
168400
168388
168393
168457
168392
168244
168244
168312
168300
168359
168340
168265
168308
168196
168187
168235
168255
168227
168154
168220
168207
168306
168343
168173
168142
168084
168170
168319
168274
168355
168289
168177
168103
168128
168333
168376
168334
168254
168218
168202
168093
168116
168216
168147
168218
168404
168344
168240
168246
168289
168225
168124
168031
168112
168160
168168
168160
168128
168120
168259
168220
168134
168049
168123
168185
168307
168166
168118
168138
168195
168245
168161
168146
168148
168174
168134
168172
168167
168186
168154
168136
168148
168096
168044
168112
168160
168091
168135
168109
168069
168178
168385
168358
168144
168132
168081
168127
168237
168132
168120
168163
168106
168095
168101
168141
168103
168005
167984
168053
168240
168251
168203
168170
168153
168132
168173
168120
168047
168088
168106
168204
168274
168172
167998
167942
167990
168160
168161
168227
168253
168086
168109
168126
168026
168002
167998
168041
168151
168136
168093
168090
168091
168034
168072
168140
168146
168112
168032
167949
167921
167948
168215
168220
168074
168018
168020
168061
168128
167979
167986
167935
167971
168132
168080
168137
168072
168069
167938
167890
168006
168061
168198
168203
168167
168182
168218
168387
168297
168292
168087
168121
168187
168092
168137
168122
167898
167763
167705
167704
167734
167647
167604
167575
167625
167698
167609
167737
167754
167735
167750
167769
167812
167911
167929
168027
167891
167757
167703
167785
168014
168104
168144
168051
167921
167943
168059
168103
167948
167809
167801
167908
167948
168082
168071
168042
167909
167906
167986
168024
168053
167972
168104
168109
167982
167996
167961
167970
168008
167901
167917
168048
168075
167987
167911
167918
168006
167980
168001
167990
168061
168109
168100
168022
168018
168025
167970
167913
168036
168024
167966
167959
167952
167930
167796
167891
168007
168034
167946
167888
167917
168092
168071
168043
167909
167800
167746
167947
168197
168191
168147
168155
168045
168010
167885
167819
167748
167788
168010
168112
168100
168096
168001
167906
167985
168050
167853
167752
167877
167842
167761
167765
167829
167811
167859
167903
167777
167638
167688
167769
167787
167804
167855
167852
167651
167614
167561
167574
167562
167587
167706
167705
167633
167636
167633
167593
167591
167635
167651
167645
167748
167635
167608
167482
167398
167542
167593
167557
167579
167507
167587
167558
167516
167392
167316
167425
167456
167587
167579
167594
167520
167585
167462
167204
167194
167373
167600
167700
167642
167503
167520
167536
167486
167443
167420
167544
167532
167406
167398
167519
167441
167554
167665
167533
167551
167503
167398
167344
167386
167369
167419
167667
167587
167370
167403
167417
167414
167403
167332
167316
167416
167430
167510
167536
167417
167448
167479
167406
167416
167402
167420
167308
167251
167348
167402
167445
167415
167346
167457
167467
167429
167336
167293
167309
167192
167169
167224
167227
167243
167329
167418
167346
167277
167334
167292
167259
167284
167256
167193
167162
167254
167254
167204
167137
167170
167257
167226
167252
167234
167240
167236
167269
167312
167291
167203
167081
167130
167148
167202
167147
167167
167175
167230
167205
167141
167161
167096
167016
167061
167162
167263
167119
167211
167082
166969
166950
167029
167222
167223
167153
167188
167204
167119
167080
167009
166987
167097
167067
167006
166999
166969
167033
167175
167105
167084
167165
167118
167137
167085
167018
167134
166999
166937
167051
167088
167104
167203
167127
167070
167057
167026
167132
167148
167057
166896
167013
167086
167158
167132
167152
167200
167117
167133
167160
167080
167121
167062
167045
167153
167149
167026
167016
167080
167143
167169
167232
167276
167092
167095
167209
167213
167098
167062
167085
167234
167181
167169
167251
167297
167293
167387
167243
167195
167185
167096
167090
167245
167158
167108
167245
167178
167046
167024
166985
167006
167155
167315
167247
167124
167076
167154
167135
167136
167175
167068
167012
167071
167119
167176
167089
167057
167117
167042
167015
166887
166929
167096
167155
167147
167124
167079
167034
167065
167097
167095
167215
167058
166927
166976
166956
167071
166987
167077
167136
167128
167190
167210
167191
167267
167306
167324
167477
167373
167227
167194
167218
167075
167004
166864
166752
166608
166683
166688
166662
166587
166567
166566
166639
166709
166708
166738
166815
166926
166879
166823
166834
166785
166780
166805
166837
167078
167202
167118
167054
166901
166837
166882
167020
167169
167127
167012
167018
166909
167043
167019
167161
167132
166992
166970
166982
167118
167102
167088
167023
167028
167072
167043
167054
167033
166962
167160
167015
167004
167212
167157
167089
167000
166945
166995
167120
167287
167246
167121
167220
167096
166993
167047
167022
167148
167076
167135
167244
167325
167200
167086
167176
167280
167278
167197
167199
167192
167124
167116
167180
167184
167175
167262
167356
167278
167235
167273
167391
167185
167166
167291
167348
167447
167453
167400
167269
167269
167393
167503
167470
167330
167349
167363
167431
167364
167334
167465
167425
167366
167402
167316
167248
167286
167311
167251
167188
167183
167159
167433
167468
167317
167256
167191
167121
167092
167001
167201
167402
167478
167376
167282
167460
167430
167330
167303
167161
167206
167259
167218
167207
167220
167405
167505
167359
167295
167221
167332
167430
167410
167367
167378
167288
167201
167269
167095
167072
167208
167438
167484
167470
167396
167366
167366
167340
167318
167378
167358
167414
167426
167354
167290
167361
167388
167383
167371
167423
167443
167341
167434
167475
167568
167445
167341
167433
167634
167649
167629
167581
167659
167696
167509
167549
167496
167431
167588
167737
167867
167763
167591
167526
167458
167482
167558
167622
167837
167784
167767
167665
167659
167630
167605
167836
167890
167892
167861
167672
167696
167791
167857
167807
167724
167673
167692
167738
167984
167893
167923
167913
167917
168004
167940
167820
167728
167748
167774
167894
168049
168079
168016
167932
167887
167898
167991
168154
168078
168067
168170
168160
168190
168206
167980
168125
168221
168150
168111
168102
168111
168156
168225
168263
168138
168223
168204
168227
168279
168108
168079
168139
168245
168317
168278
168392
168224
168190
168367
168316
168206
168282
168331
168356
168389
168395
168380
168471
168477
168469
168535
168567
168575
168597
168480
168453
168423
168469
168527
168549
168709
168594
168527
168690
168763
168780
168715
168767
168778
168899
168999
168902
168731
168767
168767
168855
168945
168992
168943
168967
169019
169061
169053
169021
168965
169025
168989
169059
169279
169346
169271
169166
169128
169024
169046
169321
169370
169415
169508
169438
169460
169409
169413
169462
169473
169496
169449
169435
169446
169387
169412
169531
169580
169583
169550
169569
169607
169626
169572
169468
169593
169751
169913
169999
170001
169814
169794
169617
169570
169693
170029
170250
170120
170046
170003
169943
169874
169890
169986
169943
170145
170170
170204
170160
170110
170079
170079
170126
170288
170440
170497
170444
170403
170438
170373
170396
170414
170536
170614
170513
170526
170555
170628
170532
170498
170334
170155
170108
170177
170189
170203
170196
170101
170197
170185
170196
170217
170317
170515
170474
170495
170538
170760
170714
170558
170553
170614
170652
170800
170766
170795
170884
170974
171032
170806
170793
170848
170863
170789
170824
170899
171024
171016
170959
170877
170980
171163
171198
171090
171010
171041
171086
171139
171177
171033
171005
171047
171238
171272
171214
171259
171196
171154
171219
171244
171235
171203
171282
171359
171421
171467
171390
171387
171397
171316
171303
171413
171433
171570
171672
171627
171642
171673
171558
171627
171573
171515
171519
171589
171657
171637
171670
171620
171683
171929
172103
171938
171911
171675
171743
171779
171831
171916
171813
171849
171823
171742
171745
171816
171782
171868
171894
172038
171955
171884
171973
172014
171929
171939
171816
171859
171876
171987
172254
172005
171925
172051
172023
171945
171892
171879
171871
171889
172139
172123
172128
171996
171995
172011
172008
172005
171880
171929
171985
172094
172197
172037
171958
172010
172032
172088
172050
172030
172059
171955
171823
171774
171779
171844
171941
172084
172078
172099
172117
172062
172118
172020
171880
171893
171903
171985
172137
172142
172061
171897
171935
172062
172121
172174
172101
172114
172077
172039
172064
172016
172076
172135
172102
172025
172054
172045
172055
172041
172027
171958
171986
172132
172185
172288
172023
172068
172134
172233
172294
172306
172217
172110
172049
172002
172032
172232
172193
172076
172165
172132
172205
172179
172212
172234
172161
172254
172343
172384
172266
172097
172128
172222
172279
172257
172262
172287
172333
172340
172233
172288
172345
172131
172253
172365
172359
172400
172368
172393
172222
172325
172403
172313
172214
172201
172165
172112
172137
172300
172313
172226
172601
172556
172372
172312
172285
172371
172353
172293
172363
172270
172328
172364
172324
172375
172337
172403
172432
172449
172451
172288
172331
172465
172403
172278
172158
172151
172237
172427
172600
172683
172524
172499
172435
172400
172402
172518
172563
172458
172404
172360
172631
172604
172563
172523
172454
172502
172532
172530
172463
172571
172671
172532
172453
172527
172501
172487
172513
172581
172769
172735
172713
172621
172559
172608
172512
172617
172647
172514
172577
172623
172681
172575
172561
172551
172458
172536
172626
172683
172712
172775
172748
172570
172539
172607
172514
172563
172654
172682
172728
172604
172714
172917
172943
172806
172755
172781
172830
172817
172884
172820
172869
172878
172900
173053
172886
172927
172928
173039
173138
173088
173039
173047
173105
173193
173174
173243
173196
173109
173066
173047
173032
172885
172786
172807
172676
172780
172780
172704
172689
172708
172766
172888
172785
172819
172817
172988
173197
173248
173221
173234
173267
173269
173306
173320
173222
173222
173329
173428
173450
173344
173365
173313
173244
173261
173303
173257
173259
173252
173326
173449
173585
173497
173579
173590
173585
173537
173498
173511
173427
173514
173612
173548
173491
173476
173564
173598
173616
173599
173591
173591
173524
173552
173587
173634
173660
173786
173634
173647
173799
173792
173877
173902
173941
173874
173710
173676
173848
173936
173982
173840
173801
173818
173874
173827
173776
173734
173791
174004
174103
174072
174154
174167
174109
174034
174007
174060
174148
173968
173921
173877
173976
174150
174225
174273
174145
174187
174261
174214
174206
174159
174172
174172
174150
174087
174062
174158
174231
174414
174488
174236
174100
174030
174122
174136
174069
174088
174323
174396
174106
173974
174087
174262
174307
174307
174240
174217
174098
174217
174062
173941
173967
174157
174324
174306
174249
174210
174270
174281
174411
174346
174293
174280
174274
174231
174190
174174
174265
174287
174291
174212
174242
174257
174190
174338
174442
174371
174318
174323
174300
174325
174272
174316
174230
174280
174229
174370
174391
174523
174585
174404
174467
174583
174675
174477
174374
174381
174498
174529
174568
174537
174660
174589
174619
174613
174501
174475
174465
174576
174578
174575
174603
174596
174599
174624
174628
174637
174612
174601
174607
174691
174480
174474
174570
174661
174541
174699
174753
174898
174912
174801
174820
174842
174636
174635
174592
174623
174619
174756
174759
174735
174757
174710
174728
174691
174662
174690
174758
174700
174669
174559
174615
174683
174822
174789
174619
174700
174757
174669
174704
174599
174620
174678
174786
174773
174679
174735
174798
174764
174690
174674
174702
174715
174774
174720
174568
174570
174520
174707
174780
174645
174706
174754
174831
174806
174720
174495
174585
174720
174820
174771
174694
174580
174510
174559
174675
174594
174641
174561
174646
174667
174844
174929
174739
174605
174569
174589
174531
174611
174613
174612
174792
174774
174654
174542
174566
174519
174491
174547
174618
174422
174396
174473
174598
174616
174521
174552
174639
174597
174564
174556
174557
174489
174597
174623
174591
174575
174541
174333
174471
174624
174639
174538
174439
174373
174362
174510
174574
174519
174440
174403
174505
174588
174522
174556
174604
174670
174675
174449
174372
174402
174511
174568
174477
174508
174471
174461
174455
174487
174447
174418
174473
174441
174489
174396
174351
174429
174397
174496
174492
174450
174423
174372
174333
174339
174369
174525
174525
174432
174444
174410
174520
174490
174542
174502
174385
174245
174179
174189
174478
174554
174584
174546
174612
174606
174394
174406
174567
174638
174752
174689
174732
174740
174606
174509
174593
174609
174562
174609
174545
174414
174437
174392
174303
174139
173966
173931
173911
174004
174065
174099
174051
174043
174046
174039
174179
174153
174065
174132
174057
174063
174287
174412
174362
174248
174183
174214
174276
174400
174427
174247
174240
174270
174312
174276
174246
174326
174321
174349
174333
174047
174007
174064
174180
174266
174204
174279
174175
174143
174131
174096
174117
174132
174205
174182
174082
174163
174137
174085
174072
174108
174183
174093
174137
174083
173987
174008
174138
174248
174189
174094
174074
174041
174026
173996
173915
173833
173782
173993
174034
174106
174190
174071
174030
174096
173987
173995
173939
173867
173870
173883
173878
173786
173710
173909
173837
173831
173850
173786
173864
173879
173856
173958
173944
173851
173703
173671
173661
173795
173880
173784
173801
173909
173904
173889
173808
173714
173634
173604
173684
173701
173828
173852
173838
173811
173616
173607
173586
173583
173616
173533
173503
173519
173586
173648
173765
173740
173763
173632
173541
173467
173508
173629
173615
173574
173444
173412
173451
173480
173616
173569
173339
173501
173507
173418
173404
173541
173450
173388
173342
173278
173454
173420
173361
173306
173395
173454
173376
173350
173378
173463
173497
173403
173302
173231
173245
173446
173455
173404
173428
173403
173385
173360
173300
173300
173287
173260
173227
173199
173326
173310
173396
173418
173339
173298
173200
173178
173087
173046
173224
173300
173340
173312
173313
173227
173112
173123
173183
173282
173284
173339
173289
173182
173264
173254
173085
173033
173071
173063
173194
173387
173360
173288
173208
173176
173104
173071
173139
173199
173211
173148
173184
173219
173152
173191
173235
173202
173156
173157
173146
173084
173211
173237
173224
173148
173052
173071
173093
173211
173183
173201
173257
173094
173012
173075
173149
173126
173114
173114
173052
173061
173055
173020
172906
172860
172897
172972
172916
172908
172983
172931
172996
173061
172993
172948
172812
172814
172868
173032
173079
173134
173074
173078
173122
172907
172948
172968
172938
172896
172874
173010
173120
173070
173006
172903
172807
172762
172883
172972
173055
172960
172955
173085
173055
173000
172880
172906
172900
172833
172740
172835
172938
173086
173081
172938
172832
172962
172995
173032
172913
172787
172873
172957
172834
172881
172980
173089
173101
173015
172997
172904
172934
172937
172971
173020
172993
173000
172949
172904
172894
172912
173090
173187
173083
172902
172894
172905
172949
173045
173041
173001
173093
173126
173017
172937
172962
172991
173030
172974
172948
172904
173037
173096
173137
173173
173145
172999
172865
172886
172915
172983
173046
173177
173242
173092
173044
172995
173074
173128
173043
172909
173045
172997
172908
172962
173048
173047
173023
173038
173087
172980
172907
172907
172935
172925
172999
173013
172980
172944
172955
172929
173119
173242
173136
172972
172965
172963
172927
172954
172969
172815
172897
173063
173272
173216
173059
173042
172961
172881
172808
172892
173138
173271
173262
173167
173109
173343
173305
173377
173342
173184
173100
173260
173380
173400
173291
173179
173149
173109
173221
173068
172855
172709
172536
172647
172508
172563
172779
172870
172959
172797
172774
172907
173011
173046
172972
173012
173078
173100
173190
173159
173227
173127
172989
173093
173227
173237
173267
173285
173282
173269
173305
173218
173184
173087
173088
173219
173254
173218
173320
173410
173308
173309
173304
173221
173061
173149
173234
173625
173549
173407
173477
173436
173351
173361
173335
173308
173327
173397
173359
173375
173380
173365
173323
173341
173423
173498
173561
173507
173394
173361
173513
173503
173307
173342
173358
173356
173425
173618
173702
173548
173560
173503
173367
173517
173671
173733
173602
173506
173534
173632
173685
173641
173624
173580
173548
173484
173535
173664
173666
173624
173690
173749
173708
173830
173728
173771
173782
173657
173585
173549
173658
173661
173715
173744
173686
173590
173679
173628
173686
173719
173826
173807
173781
173849
173747
173640
173712
173706
173736
173705
173763
173808
173760
173815
173729
173592
173595
173719
173890
173829
173836
173843
173754
173653
173624
173759
174021
174019
173848
173720
173782
173859
173979
173791
173593
173610
173754
174006
173978
173941
173966
173925
173927
173844
173746
173789
173862
173869
173834
173801
173877
174002
174038
173950
173774
173813
173864
173888
173971
173948
173918
173914
174030
174104
173985
173917
173935
173910
174085
174168
174157
174081
174075
174066
173857
173947
174143
174108
174057
174107
174117
174162
174162
174226
174141
174175
174216
174077
174120
174118
174229
174172
174086
174117
174170
174247
174275
174316
174239
174203
174267
174259
174288
174292
174247
174150
174074
174242
174275
174429
174515
174331
174381
174282
174162
174292
174237
174403
174352
174278
174343
174366
174388
174425
174372
174356
174278
174282
174343
174436
174520
174420
174392
174392
174425
174339
174296
174398
174523
174571
174566
174418
174286
174393
174391
174393
174428
174491
174507
174470
174472
174464
174501
174418
174392
174513
174520
174421
174516
174520
174618
174575
174516
174528
174398
174492
174500
174459
174572
174704
174649
174694
174634
174619
174525
174510
174355
174313
174489
174663
174697
174701
174702
174677
174607
174696
174631
174536
174623
174539
174522
174655
174587
174702
174828
174740
174704
174656
174660
174621
174660
174625
174692
174743
174600
174517
174600
174648
174694
174759
174795
174796
174782
174799
174710
174737
174726
174591
174570
174616
174779
174924
174955
174867
174770
174797
174777
174850
174864
174763
174899
174942
174898
174821
174768
174771
174816
174837
174784
174642
174708
174854
174922
175015
174989
174900
174913
174926
174951
174933
174926
174937
175026
174979
174930
174910
174822
174904
174959
174942
175011
174980
174983
174921
174775
174808
174867
174838
174929
174875
174840
174934
174970
174893
174795
174696
174764
174794
174823
174913
174914
174890
174893
174850
174794
174835
174860
175031
175041
174980
175045
175016
174926
174952
174738
174780
174976
174961
174971
174888
174983
174924
174986
175023
174943
175002
175085
175144
175240
175289
175282
175299
175155
175165
175111
175013
175166
175122
174951
174952
174887
174726
174630
174692
174718
174629
174748
174694
174698
174670
174764
174759
174803
174861
174858
174852
174979
175023
175159
175150
175120
175236
175120
175121
175043
175133
175174
175200
175177
175117
175165
175058
175028
175049
175106
175161
175186
175246
175250
175279
175219
175117
175047
175215
175395
175349
175273
175211
175219
175170
175258
175291
175331
175470
175359
175203
175315
175353
175215
175260
175346
175368
175412
175469
175477
175335
175202
175179
175269
175269
175370
175524
175416
175491
175450
175459
175486
175427
175407
175413
175467
175461
175431
175542
175489
175453
175514
175490
175427
175421
175484
175493
175529
175667
175500
175506
175503
175610
175627
175498
175641
175669
175458
175454
175531
175598
175628
175515
175565
175435
175484
175434
175480
175619
175573
175507
175491
175555
175495
175453
175560
175541
175556
175552
175404
175335
175299
175439
175348
175467
175469
175474
175532
175494
175480
175435
175378
175394
175493
175440
175504
175470
175371
175377
175360
175468
175448
175511
175534
175547
175530
175469
175488
175453
175474
175502
175470
175496
175477
175359
175403
175444
175495
175456
175497
175467
175431
175330
175302
175308
175536
175643
175659
175582
175498
175573
175528
175496
175576
175567
175522
175498
175485
175448
175511
175581
175503
175515
175504
175535
175595
175635
175538
175554
175485
175524
175569
175488
175501
175709
175584
175552
175676
175662
175538
175644
175693
175671
175736
175688
175666
175622
175660
175632
175627
175811
175833
175674
175541
175579
175726
175672
175703
175690
175677
175674
175740
175716
175678
175671
175717
175699
175792
175815
175714
175717
175729
175736
175812
175837
175860
175625
175562
175720
175845
175841
175826
175744
175714
175704
175678
175651
175695
175795
175681
175678
175710
175810
175791
175685
175727
175842
175915
175917
175782
175825
175651
175621
175579
175735
175779
175869
175749
175823
175709
175635
175849
175816
175736
175742
175832
175822
175836
175769
175633
175585
175699
175723
175811
175742
175736
175807
175853
175782
175685
175784
175779
175794
175800
175647
175640
175716
175873
175985
175981
175877
175854
175837
175776
175730
175767
175813
175860
175919
175781
175771
175679
175743
175818
175856
176055
176116
175993
175906
175784
175863
175809
175819
175823
175696
175728
175864
175857
175829
175970
175949
175859
175907
175968
175976
176009
175998
175990
175938
175860
175889
175758
175676
175877
175984
175974
175870
175826
175833
175740
175839
175828
175767
175790
175782
175804
175953
175960
176047
175885
175889
175871
175824
175881
175858
175854
175888
175850
175787
175860
175830
175799
175811
175869
175846
175785
175716
175697
175783
175797
175836
175919
176069
176033
175835
175902
176003
176027
176008
176002
175995
175970
176114
176030
175953
175992
175997
176107
176007
175910
175836
175739
175536
175432
175384
175305
175411
175451
175409
175424
175492
175574
175558
175476
175559
175633
175692
175714
175751
175559
175774
175895
175973
175894
175756
175775
175766
175828
175944
176050
176033
175873
175880
175852
175798
175865
175915
175905
175961
175879
175916
175973
175884
175878
175908
175874
175810
175922
176112
176081
176079
175890
175846
175876
175873
175903
175981
176021
175850
175946
176225
176084
175977
175969
175899
175957
176051
175977
175856
175744
175782
175944
176072
175986
176005
176109
176074
176151
176048
175942
176035
176062
175965
175940
175918
175942
176019
176105
175966
175981
176084
176137
176148
176056
176020
176010
176079
176154
176229
176229
176031
175899
175745
175788
175930
176187
176190
176158
176057
175950
176028
176007
175994
176001
175940
175971
176035
176017
176002
175901
176061
175929
175979
175874
175827
175884
175972
175989
175975
175866
175997
175862
175729
175639
175714
175846
175907
175837
175905
175889
175910
175958
175846
175856
175892
175882
175879
175916
175747
175686
175674
175672
175660
175743
175678
175783
175719
175710
175742
175783
175840
175877
175858
175707
175726
175708
175843
175883
175815
175755
175736
175777
175712
175726
175650
175757
175906
175827
175866
175832
175857
175794
175713
175794
175794
175697
175722
175779
175777
175666
175624
175757
175789
175770
175702
175743
175710
175840
175890
175877
175871
175735
175778
175849
175986
175820
175779
175743
175807
175780
175677
175653
175787
175896
175829
175817
175770
175777
175883
175859
175831
175799
175820
175784
175733
175718
175753
175774
175814
175851
175939
175829
175861
175814
175846
175802
175828
175868
175699
175761
175755
175717
175762
175693
175601
175617
175754
175831
175920
175890
175827
175752
175690
175767
175708
175769
175767
175643
175753
175694
175720
175747
175746
175746
175637
175785
175690
175641
175747
175676
175707
175656
175618
175580
175585
175720
175829
175890
175810
175668
175652
175678
175857
175794
175535
175707
175778
175761
175732
175781
175762
175616
175677
175743
175703
175705
175699
175783
175775
175725
175727
175690
175706
175868
175742
175801
175812
175832
175797
175757
175698
175726
175685
175677
175747
175860
175905
175820
175755
175643
175643
175659
175752
175910
175815
175766
175835
175820
175856
175879
175835
175835
175843
175760
175759
175858
175835
175825
175823
175699
175783
175860
175956
175802
175783
175878
175843
175845
175857
175778
175739
175780
175755
175733
175704
175752
175781
175767
175825
175866
175770
175799
175774
175813
175794
175837
175860
175772
175778
175769
175772
175785
175864
175810
175814
175780
175730
175794
175834
175761
175654
175710
175801
175912
175814
175854
175901
175891
175846
175796
175938
175991
176020
176021
175963
176009
176144
176143
175979
175919
176082
176110
175970
175880
175613
175542
175685
175532
175540
175529
175482
175402
175411
175438
175424
175434
175465
175504
175603
175663
175773
175751
175712
175740
175743
175801
175941
175993
175902
175824
175880
175771
175711
175736
175901
176203
175914
175880
176039
176070
175976
175973
175890
175891
175749
175809
175785
175818
175891
175872
176079
176039
176011
176037
175963
176027
175961
175996
176082
176092
176056
175990
175903
175921
175850
175866
175940
175979
176018
176002
176139
176050
175997
176030
175980
176102
176199
176092
176150
175959
176060
176174
176166
176072
175971
175994
176166
176280
176219
176180
176116
176074
176169
176158
176119
176147
176281
176145
176202
176164
176146
176199
176206
176316
176315
176213
176221
176286
176303
176169
176254
176227
176128
176040
176141
176272
176282
176146
176070
176070
176232
176245
176203
176187
176172
176165
176143
176196
176161
175990
176035
176188
176204
176121
176209
176209
176152
176192
176200
176121
176138
176134
176019
176064
176127
176140
176108
176096
176146
176208
176238
176211
176083
176196
176113
176102
176088
176084
176078
176017
176134
176182
176209
176055
175990
176071
176150
176239
176261
176222
176241
176242
176169
176173
176138
176186
176222
176127
176143
176138
176152
176213
176262
176252
176196
176271
176152
176141
176188
176140
176183
176347
176328
176285
176084
176129
176197
176220
176133
176177
176299
176285
176339
176367
176280
176315
176452
176453
176319
176327
176316
176275
176283
176363
176245
176266
176316
176430
176415
176429
176512
176406
176311
176422
176384
176381
176365
176193
176219
176246
176462
176602
176479
176405
176385
176410
176491
176489
176504
176545
176513
176394
176416
176472
176358
176472
176578
176415
176429
176356
176415
176413
176493
176520
176398
176385
176493
176603
176613
176565
176587
176529
176509
176450
176444
176414
176417
176505
176489
176457
176544
176544
176576
176516
176463
176511
176705
176752
176705
176386
176375
176437
176512
176498
176459
176455
176497
176561
176583
176604
176653
176687
176562
176528
176481
176441
176488
176569
176595
176528
176635
176698
176611
176548
176533
176567
176605
176750
176756
176636
176687
176759
176668
176677
176736
176545
176476
176581
176738
176779
176817
176787
176710
176720
176633
176634
176672
176762
176726
176750
176870
176840
176752
176739
176677
176608
176549
176648
176637
176790
176920
176970
176769
176804
176630
176686
176747
176736
176687
176801
176855
176885
176891
176805
176716
176695
176714
176723
176639
176584
176769
176828
176876
176795
176763
176764
176719
176740
176756
176849
177013
176983
176862
176736
176665
176653
176713
176895
177012
177029
177022
177004
177060
177053
176897
176985
177132
177155
177090
177004
176977
177113
177282
177101
176918
176808
176767
176680
176549
176426
176558
176662
176639
176510
176461
176451
176471
176563
176546
176595
176785
176824
176900
176998
176713
176781
176853
176903
176885
176943
177077
177017
176999
176965
176952
176943
176873
177016
177060
177069
177009
176974
176934
176982
176978
177018
177183
177123
176999
176918
177036
176958
176996
177071
177058
177175
177127
177087
177101
177103
177124
177005
176947
176916
176934
176977
177121
177250
177261
177168
177119
177119
177069
177099
177085
177146
177136
177110
177093
177101
177049
177154
177204
177164
177069
177060
177095
177186
177263
177092
177092
177155
177128
177206
177228
177306
177318
177272
177249
177191
177086
177112
177112
177163
177108
177319
177530
177357
177246
177189
177226
177239
177265
177129
176976
177088
177115
177104
177097
177166
177266
177270
177192
177103
177008
177166
177085
177142
177183
177221
177251
177238
177198
177098
176978
176923
176930
176992
177146
177294
177183
177125
177112
177165
177053
176983
177010
176911
176933
176972
177063
177125
177189
177125
177072
177051
176963
177049
177086
176921
176885
176871
177004
177171
177114
176999
177106
176993
176961
176901
177029
177214
177127
177016
176929
176843
176973
177016
177056
177167
177127
177000
177095
177002
176912
176927
176993
176937
176984
176996
177009
177120
177154
177097
177007
176983
177020
176897
177042
177049
177112
177262
177184
176993
176943
177020
177128
177241
177185
177163
177225
177150
177158
177149
177036
177045
177074
177043
177096
177161
177311
177225
177181
177052
176966
177009
176962
177044
177007
177148
177093
177109
177152
177081
177009
176983
176965
176965
176999
176944
176902
176940
176972
177105
177099
176960
176900
176849
176903
176884
177007
177061
177066
177096
176822
176769
176773
176854
176966
177107
177032
176908
176883
176847
176865
176900
176994
176992
176778
176696
176769
176966
177155
177113
176916
176956
176856
176831
176823
176857
176871
176822
176793
176753
176881
176868
176797
176791
176760
176794
176763
176826
177070
176996
176945
176897
176881
176905
176935
176971
177017
176974
176901
176872
176796
176918
176867
177028
177063
177024
177020
176897
176876
176736
176763
176823
176969
176912
176797
176725
176825
176907
176857
176871
176895
176931
176837
176893
177136
176734
176728
176715
176773
176823
176845
177017
177067
176967
176952
176924
176922
176811
176736
176700
176653
176929
177138
176987
176805
176879
176960
176954
176935
176967
176838
176841
176833
176774
176847
176825
176871
176978
176943
176904
176912
176930
176993
177031
177115
177073
177193
177191
177201
177059
176893
176814
176654
176609
176618
176557
176493
176455
176593
176462
176389
176388
176417
176436
176379
176490
176511
176609
176597
176605
176582
176658
176654
176759
176843
176773
176817
176875
176728
176596
176634
176940
176895
176755
176666
176690
176692
176758
176871
176906
176920
176857
176842
176693
176606
176663
176816
176914
176933
176671
176697
176846
176889
176890
176833
176646
176638
176612
176559
176635
176706
176876
176856
176843
176850
176686
176749
176805
176801
176806
176725
176676
176668
176844
176800
176643
176679
176750
176746
176830
176839
176794
176723
176798
176774
176854
176815
176855
176794
176817
176789
176869
176933
176965
176943
176884
176933
176948
176873
176859
176738
176824
176901
176853
176805
176811
176875
177054
177091
176914
176830
176826
176856
176826
176772
176842
176866
176825
176732
176638
176712
176799
176762
176726
176684
176717
176805
176792
176821
176817
176747
176717
176594
176472
176552
176692
176849
176726
176563
176486
176525
176469
176496
176574
176583
176528
176584
176515
176631
176648
176541
176472
176433
176395
176431
176412
176470
176627
176572
176534
176392
176330
176337
176414
176483
176511
176533
176590
176496
176523
176295
176412
176492
176479
176450
176465
176442
176441
176436
176455
176419
176445
176509
176466
176468
176440
176543
176326
176076
176099
176097
176199
176285
176245
176227
176271
176355
176523
176338
176328
176306
176348
176378
176309
176225
176288
176489
176508
176502
176454
176413
176421
176427
176395
176402
176383
176416
176412
176389
176394
176216
176305
176294
176266
176155
176168
176448
176540
176437
176388
176342
176402
176360
176320
176322
176347
176381
176397
176351
176314
176260
176326
176318
176334
176310
176223
176363
176470
176361
176313
176293
176304
176319
176311
176343
176223
176360
176340
176325
176304
176216
176183
176156
176213
176367
176349
176333
176298
176249
176285
176379
176361
176263
176158
176143
176188
176367
176447
176468
176403
176251
176238
176272
176254
176233
176236
176335
176415
176293
176271
176289
176316
176275
176276
176290
176291
176392
176367
176365
176296
176103
176056
176169
176338
176460
176397
176360
176398
176447
176406
176331
176389
176338
176263
176200
176309
176280
176145
176193
176241
176181
176148
176263
176307
176197
176166
176208
176152
176164
176192
176128
176072
176196
176205
176342
176241
176212
176342
176376
176306
176200
176104
176220
176246
176193
176089
176111
176200
176319
176270
176196
176250
176181
176146
176165
176204
176320
176447
176427
176581
176475
176411
176486
176393
176283
176172
176200
176092
176143
176096
175852
175808
175861
175673
175732
175710
175759
175760
175829
175930
175831
175852
175932
175901
175897
175820
175982
176192
176205
176134
176098
176177
176241
176352
176250
176193
176149
176176
176272
176182
176159
176033
176126
176144
176136
176232
176228
176187
176170
176106
176053
176169
176051
176118
176177
176206
176268
176225
176154
176066
176001
176058
176154
176222
176290
176253
176159
176124
176247
176230
176113
176051
176123
176105
176169
176182
176212
176166
176186
176177
176137
176245
176152
176103
176009
176156
176225
176235
176165
176198
176154
176197
176141
176148
176183
176225
176331
176210
176134
176219
176285
176253
176284
176409
176330
176220
176190
176174
176204
176209
176154
176206
176201
176252
176173
176244
176218
176159
175998
176022
176048
176297
176416
176149
176142
175970
175988
176229
176264
176246
176163
176111
176105
176105
176019
176004
176060
176029
176061
176110
175989
176031
176028
175987
175971
175975
175918
175919
175919
175885
175903
175907
175981
175944
175841
175756
175871
176059
175994
176012
175911
175979
176006
175935
175811
175836
175959
175945
175984
175928
175804
175977
175875
175821
175841
175894
175930
176079
176063
175941
175846
175888
175877
175948
175939
175893
175820
175776
175759
175891
176000
176035
175962
175887
175986
175992
175842
175817
175825
175949
176008
176043
175996
175946
175991
175910
175923
175922
175939
175910
175911
176029
175909
175890
175916
175877
175909
175984
176090
175985
175916
175915
175949
175944
175905
175783
175847
175889
175877
176038
176074
176001
176004
175875
175668
175770
175979
176170
176119
176163
175942
175737
175767
175850
175932
175892
175788
175832
175814
175929
175892
175921
176024
175956
175864
175791
175899
175963
176033
175895
175882
175868
175733
175696
175781
175861
175833
175846
175858
176000
175883
175900
175872
175852
175856
175727
175932
175903
175741
175783
175821
175953
175841
175722
175766
175873
175910
175867
175881
175899
175904
175800
175882
175949
175784
175831
175846
175886
175938
175848
175792
175808
175830
175809
175882
175899
175964
175947
175791
175825
175790
175762
175759
175791
175924
175883
175886
175931
175852
175895
175854
175867
175936
175926
175820
175649
175814
175863
175975
176058
175918
175870
175783
175793
175822
175804
175856
175940
175961
175846
175762
175714
175718
175961
175930
175845
175890
175790
175666
175681
175775
175965
175972
175863
175746
175735
175855
175832
175775
175839
175820
175890
175750
175774
175807
175767
175680
175620
175825
175782
175832
175888
175872
175814
175795
175758
175777
175861
175993
176017
175969
176123
176142
175936
175938
175869
175826
175820
175773
175689
175551
175353
175229
175341
175369
175349
175326
175349
175340
175341
175341
175489
175442
175322
175382
175439
175487
175662
175739
175733
175689
175658
175550
175549
175577
175529
175776
175852
175758
175694
175687
175675
175670
175746
175725
175642
175711
175669
175680
175682
175673
175712
175563
175648
175717
175700
175703
175743
175736
175746
175659
175600
175621
175629
175833
175583
175682
175738
175734
175672
175618
175495
175524
175590
175806
175778
175773
175786
175792
175712
175688
175724
175723
175748
175626
175709
175866
175856
175644
175647
175770
175785
175704
175698
175744
175785
175823
175895
175921
175867
175834
175685
175738
175794
175675
175834
175936
175860
175855
175890
175775
175772
175722
175765
175692
175668
175657
175741
175794
175724
175560
175746
175753
175632
175594
175693
175800
175709
175701
175691
175679
175607
175706
175633
175563
175559
175509
175668
175716
175705
175666
175630
175562
175638
175495
175365
175517
175455
175506
175696
175674
175540
175440
175450
175592
175436
175442
175502
175513
175575
175547
175379
175442
175433
175405
175382
175297
175333
175327
175547
175673
175597
175482
175433
175492
175471
175495
175430
175495
175509
175406
175462
175422
175415
175364
175250
175407
175550
175614
175520
175404
175430
175420
175469
175449
175402
175499
175491
175480
175362
175408
175538
175595
175562
175594
175508
175501
175500
175502
175538
175525
175587
175529
175548
175528
175373
175438
175544
175633
175566
175520
175478
175382
175435
175613
175576
175572
175727
175608
175625
175578
175465
175438
175431
175438
175511
175530
175526
175571
175549
175627
175453
175465
175408
175492
175498
175412
175450
175482
175510
175420
175424
175437
175501
175515
175478
175522
175565
175470
175449
175364
175390
175420
175519
175515
175482
175364
175311
175389
175343
175438
175508
175498
175492
175447
175421
175382
175439
175376
175420
175442
175491
175396
175266
175247
175199
175204
175398
175547
175555
175424
175478
175501
175326
175313
175308
175309
175246
175379
175500
175435
175490
175421
175262
175205
175210
175345
175436
175453
175382
175366
175383
175402
175299
175196
175244
175359
175528
175574
175451
175376
175453
175435
175520
175563
175377
175411
175312
175304
175506
175556
175488
175235
175294
175336
175291
175283
175309
175415
175541
175499
175430
175408
175425
175477
175374
175248
175099
175111
175328
175547
175449
175347
175336
175411
175395
175434
175406
175284
175250
175302
175314
175440
175468
175464
175371
175221
175239
175358
175367
175263
175187
175321
175294
175326
175299
175310
175228
175227
175420
175626
175577
175629
175663
175568
175419
175436
175366
175398
175511
175458
175341
175167
175074
174976
174969
174963
174935
174972
174910
174846
174849
174918
174880
174824
174810
174862
174951
175096
175122
175141
175126
175130
175168
175257
175327
175259
175095
175193
175388
175304
175279
175283
175156
175133
175157
175255
175323
175205
175197
175107
175191
175221
175134
175068
175128
175170
175143
175151
175152
175172
175187
175161
175167
175269
175208
175272
175304
175093
175113
175107
175165
175247
175237
175117
175184
175186
175130
175144
175185
175119
175144
175129
175072
175048
175099
175176
175125
175039
175092
175141
175360
175369
175368
175244
175123
175170
175161
175137
175130
175215
175263
175279
175307
175274
175081
175208
175105
175147
175224
175230
175290
175221
175175
175115
175028
175106
175154
175029
174957
174959
174996
175114
175268
175196
175187
175229
175092
175124
175168
175060
175105
175112
175072
174934
174822
174887
175115
175108
174963
174963
175038
175074
175126
175058
174870
174874
174855
174871
174867
174883
174943
175012
175013
174943
174893
174867
174927
174778
174779
174849
174895
174894
174876
174830
174794
174893
174957
175047
175046
174931
174895
174902
174844
174873
174880
174799
174788
174695
174675
174708
174942
174875
174918
174909
174747
174778
174830
174824
174800
174730
174797
174825
174956
175026
174831
174839
174893
174917
174886
174877
174909
174952
174944
174831
174726
174786
174847
174867
174861
174824
174814
174834
174842
174962
174786
174834
174854
174859
174900
174884
174811
174822
174990
174913
174759
174797
174817
174799
174854
174810
174864
174993
174944
174898
174884
174769
174802
174864
174878
174872
174978
174901
174701
174613
174493
174619
174789
174956
174967
174892
174842
174819
174817
174783
174722
174699
174682
174685
174770
174745
174784
174774
174807
174913
174848
174779
174767
174669
174667
174657
174776
174844
174855
174826
174709
174712
174711
174770
174767
174752
174751
174740
174796
174843
174616
174637
174669
174762
174790
174711
174701
174742
174739
174776
174783
174785
174798
174804
174820
174764
174727
174726
174637
174562
174538
174592
174572
174764
174898
174817
174827
174782
174739
174783
174630
174569
174511
174497
174484
174605
174829
174758
174700
174733
174712
174700
174610
174576
174571
174524
174690
174740
174718
174784
174726
174642
174630
174645
174716
174682
174663
174746
174759
174687
174649
174605
174557
174658
174904
174920
175000
174924
174827
174793
174783
174812
174844
174822
174744
174550
174393
174354
174407
174476
174431
174301
174196
174149
174282
174210
174225
174245
174318
174264
174191
174207
174289
174320
174459
174494
174523
174705
174709
174599
174534
174473
174539
174545
174610
174547
174507
174493
174695
174654
174667
174741
174733
174557
174592
174622
174579
174534
174484
174448
174476
174581
174677
174719
174654
174633
174598
174641
174631
174636
174536
174548
174604
174665
174721
174605
174540
174475
174586
174676
174600
174580
174511
174440
174423
174432
174531
174508
174579
174649
174605
174584
174482
174527
174534
174579
174563
174594
174618
174588
174592
174549
174486
174592
174628
174561
174772
174807
174587
174550
174405
174474
174683
174740
174755
174700
174669
174665
174665
174633
174482
174463
174463
174511
174612
174535
174691
174620
174558
174643
174589
174564
174487
174386
174432
174534
174592
174656
174693
174510
174458
174637
174643
174734
174546
174560
174591
174595
174497
174347
174278
174362
174440
174564
174652
174606
174495
174475
174577
174585
174506
174302
174186
174272
174520
174588
174626
174584
174665
174563
174471
174514
174378
174388
174564
174539
174524
174533
174703
174602
174513
174510
174587
174563
174562
174524
174512
174600
174728
174631
174580
174659
174667
174686
174719
174683
174546
174604
174558
174537
174578
174563
174549
174654
174743
174653
174619
174689
174747
174716
174637
174615
174691
174830
174842
174885
174936
174821
174760
174767
174642
174794
174881
174922
174794
174794
174821
174881
174916
174864
174821
174825
174999
175031
174947
174884
174901
174933
174857
174846
174834
174882
174944
174931
175116
175064
174975
174964
175121
175241
175079
174950
174839
174956
174959
174872
174903
174999
175116
175046
174872
174924
175014
175089
175170
175086
175141
175152
175053
174995
174995
174995
175007
175082
175087
175041
175026
174995
175201
175258
175279
175272
175239
175142
175114
175028
175121
175097
175175
175390
175257
175297
175369
175411
175358
175309
175270
175275
175279
175294
175376
175367
175373
175343
175398
175476
175539
175543
175474
175421
175378
175356
175489
175535
175479
175514
175555
175585
175585
175605
175607
175757
175799
175601
175521
175401
175530
175724
175779
175623
175607
175701
175662
175826
175859
175794
175833
175866
175874
175868
175792
175689
175727
175780
175841
175771
175767
175867
175907
175846
175852
175922
175913
176066
176177
176094
176003
176014
175992
176056
176042
176078
176082
176084
176254
176231
176240
176166
176134
176164
176082
176186
176341
176354
176354
176366
176442
176460
176456
176563
176577
176527
176563
176466
176373
176489
176714
176895
176762
176781
176619
176442
176317
176308
176179
176072
176107
176294
176388
176331
176171
176238
176199
176280
176332
176378
176455
176550
176663
176616
176646
176696
176764
176850
176812
176850
176922
176822
176898
176892
176789
176872
176896
176854
176950
177032
177001
177027
177071
177152
176964
177055
177121
177110
177006
176974
177039
177120
177193
177183
177086
177133
177188
177199
177149
177271
177346
177346
177271
177228
177261
177267
177209
177224
177350
177422
177469
177407
177378
177297
177271
177246
177381
177677
177647
177408
177490
177581
177577
177577
177475
177461
177445
177471
177486
177486
177598
177673
177686
177629
177525
177620
177665
177680
177698
177637
177713
177870
177785
177695
177604
177505
177687
177786
177930
177999
177867
177790
177719
177835
177712
177651
177666
177758
177827
177843
177970
178006
177861
177820
177745
177679
177723
177806
177824
177810
177796
177819
177848
177796
177727
177759
177826
177840
177931
177816
177875
177882
177908
177980
177954
177917
177731
177726
177714
177754
177860
177969
178153
178150
177958
177920
177947
177914
177878
177916
177969
177997
177863
177801
177687
177804
177812
177843
178052
178145
178116
178100
178144
178031
177903
177850
177866
177900
177911
177878
177931
178083
178117
178106
178026
178026
178023
178028
178039
177901
177973
178114
178038
178094
178100
178118
178101
178000
178012
178050
178094
178172
178121
178054
178114
178055
177949
178002
178137
178050
178129
178130
178107
178138
178130
178118
178137
178135
177989
177951
178072
178197
178115
178034
178084
178223
178227
178119
178097
178075
178115
178143
178215
178098
177830
177859
177967
178091
178156
178163
178283
178326
178213
178084
178016
177995
177989
178097
178095
178109
178095
178053
178028
178056
178012
178121
178033
178057
178104
178080
178061
178082
178089
178208
178139
177997
177914
177878
177992
178144
178242
178092
178124
178160
178075
178068
178071
178003
177880
177954
178215
178132
178139
178188
178058
177962
178041
177969
177989
178071
178166
178125
178130
178136
178101
178015
177852
177824
178021
178170
178301
178261
178169
178082
178000
178021
177987
178027
178029
177949
178024
178068
178137
178133
178104
178119
178048
178062
178141
178029
178070
178088
178058
178071
178098
178040
178070
178044
177904
177839
178016
178223
178192
178053
178095
178036
178095
178059
178018
177894
178068
178105
178107
178063
177987
177995
178008
178007
178016
177920
177922
177953
178026
178068
178072
177984
178015
177859
177914
177992
177999
177882
177799
177880
177902
177914
177956
178008
177881
177902
178007
178033
178010
177953
178008
178125
178111
178013
178022
177908
177942
178189
178183
178286
178219
178217
178172
178106
178025
178048
178058
177938
177883
177806
177681
177525
177308
177311
177381
177473
177578
177501
177453
177499
177547
177543
177587
177577
177680
177552
177625
177776
177860
177882
177898
177954
177864
177778
177668
177665
177759
177759
177882
177911
177839
177779
177671
177644
177637
177692
177871
177751
177786
177808
177760
177744
177781
177729
177781
177841
177848
177691
177744
177722
177678
177671
177741
177671
177707
177750
177947
177987
177870
177856
177672
177648
177732
177688
177689
177727
177791
177775
177778
177761
177766
177785
177739
177788
177669
177717
177722
177794
177828
177723
177647
177592
177620
177668
177766
177726
177813
177826
177829
177747
177651
177676
177665
177747
177713
177699
177717
177766
177740
177744
177730
177773
177750
177617
177489
177522
177714
177681
177622
177712
177587
177555
177613
177702
177641
177535
177562
177641
177615
177688
177592
177456
177436
177485
177604
177643
177670
177588
177517
177556
177559
177681
177628
177509
177378
177497
177499
177626
177551
177584
177593
177493
177428
177455
177489
177468
177629
177642
177622
177548
177452
177399
177357
177380
177408
177391
177496
177620
177623
177625
177674
177521
177467
177432
177430
177326
177377
177404
177443
177418
177464
177480
177413
177480
177432
177383
177443
177552
177602
177592
177538
177548
177515
177518
177581
177552
177254
177249
177286
177411
177410
177588
177565
177567
177564
177442
177519
177453
177427
177471
177381
177301
177301
177275
177255
177442
177568
177568
177581
177649
177569
177390
177368
177362
177410
177427
177446
177446
177489
177474
177452
177459
177539
177540
177402
177313
177315
177251
177209
177353
177503
177403
177262
177308
177337
177400
177494
177437
177344
177406
177357
177346
177343
177285
177303
177279
177480
177493
177366
177363
177347
177374
177322
177291
177305
177330
177300
177203
177200
177378
177479
177453
177377
177305
177321
177334
177386
177295
177196
177325
177310
177283
177294
177269
177249
177128
177312
177409
177409
177424
177379
177342
177283
177296
177326
177242
177216
177195
177143
177193
177313
177410
177254
177279
177437
177502
177393
177342
177311
177419
177415
177236
177105
177103
177161
177246
177359
177271
177267
177274
177265
177281
177230
177208
177180
177352
177278
177195
177177
177225
177176
177300
177346
177292
177382
177322
177338
177251
177230
177202
177164
177201
177273
177186
177097
177074
177135
177275
177268
177199
177098
177071
177010
177094
177101
177082
177109
177190
177191
177138
177092
177206
177180
177024
177032
177071
177140
177229
177192
177182
177114
177074
177027
177025
176995
177010
177040
177159
177135
177175
177024
177027
176969
176961
177059
177081
177169
177305
177364
177360
177220
177245
177134
177072
177094
177008
176960
176953
177020
177015
176740
176662
176648
176458
176361
176364
176475
176620
176655
176648
176581
176538
176612
176676
176662
176710
176815
176760
176762
176738
176761
176814
176779
176830
176788
176855
176889
176868
176777
176827
176805
176729
176713
176811
176792
176708
176631
176668
176709
176724
176778
176867
176872
176857
176850
176827
176756
176757
176741
176612
176554
176639
176651
176717
176750
176670
176676
176655
176690
176706
176715
176672
176608
176708
176751
176749
176748
176694
176628
176561
176640
176641
176789
176808
176726
176663
176699
176631
176566
176696
176661
176751
176801
176730
176692
176658
176753
176716
176721
176652
176631
176630
176696
176690
176664
176547
176508
176668
176767
176615
176599
176710
176680
176541
176459
176334
176564
176796
176740
176707
176602
176593
176587
176596
176579
176450
176368
176407
176337
176389
176479
176552
176586
176527
176434
176407
176470
176403
176430
176468
176431
176344
176196
176188
176244
176331
176519
176617
176426
176457
176453
176336
176484
176432
176330
176286
176290
176244
176193
176223
176283
176421
176343
176389
176339
176221
176248
176174
176283
176370
176297
176245
176352
176291
176266
176231
176219
176240
176294
176308
176413
176216
176211
176160
176236
176177
176189
176307
176380
176329
176146
176156
176236
176255
176265
176072
176131
176155
176113
176095
176178
176294
176382
176285
176255
176137
176082
176147
176120
176147
176118
176187
176243
176171
176290
176195
176221
176227
176315
176161
175998
176038
176129
176143
176133
176061
175997
175977
176006
176139
176214
176218
176078
175971
176009
175989
175988
176021
176045
175927
175825
175909
176022
176063
176112
176013
175989
176041
175918
176021
176018
176050
175948
175834
175916
175910
175931
175936
176017
176030
175912
175855
175974
176105
176113
176057
175982
175933
176038
176026
175888
175857
175794
175892
176042
175916
175926
175988
175999
175998
175898
175994
175998
175884
175832
175943
176011
175897
175890
175981
175955
175957
176092
175963
175802
175835
175929
175833
175933
176038
175898
175921
175873
175823
175923
175982
176028
175983
175870
175817
175781
175843
175914
176034
175888
175867
175867
175860
175930
175941
175895
175842
175835
175875
175837
175852
175934
175825
175823
175961
175967
175970
175798
175710
175746
175746
175861
175802
175817
175805
175698
175717
175876
175799
175647
175675
175767
175843
175846
175856
175832
175822
175886
175828
175677
175702
175693
175698
175811
175758
175766
175797
175741
175835
175739
175643
175724
175723
175696
175699
175675
175756
175804
175854
175856
175830
175864
175762
175683
175728
175886
176037
175981
175928
175888
175884
175967
176103
176173
176056
175976
176008
175843
175799
175614
175443
175305
175242
175320
175376
175216
175226
175216
175325
175431
175353
175388
175353
175471
175491
175479
175557
175617
175701
175713
175658
175705
175647
175675
175747
175779
175755
175639
175555
175580
175565
175655
175687
175630
175779
175729
175725
175587
175594
175754
175931
175615
175547
175606
175696
175739
175723
175727
175739
175686
175715
175663
175653
175730
175734
175611
175639
175668
175643
175673
175620
175659
175627
175673
175689
175621
175667
175662
175588
175493
175446
175597
175705
175795
175768
175732
175701
175731
175672
175643
175544
175746
175580
175579
175709
175679
175629
175698
175752
175709
175641
175608
175745
175661
175731
175695
175662
175560
175557
175603
175648
175680
175622
175618
175620
175631
175595
175689
175755
175750
175542
175438
175536
175587
175555
175491
175437
175515
175469
175400
175465
175546
175493
175430
175441
175460
175557
175582
175606
175518
175530
175522
175549
175466
175361
175436
175587
175564
175488
175275
175326
175444
175555
175588
175631
175502
175328
175392
175502
175448
175271
175300
175215
175263
175369
175441
175563
175538
175456
175397
175278
175321
175484
175421
175461
175358
175347
175314
175374
175403
175331
175384
175356
175436
175415
175341
175357
175353
175472
175480
175530
175588
175356
175309
175286
175238
175186
175360
175491
175497
175394
175451
175397
175437
175454
175384
175507
175460
175358
175372
175325
175324
175392
175467
175369
175339
175336
175299
175324
175281
175462
175640
175618
175503
175362
175200
175212
175274
175495
175542
175559
175542
175334
175256
175440
175462
175437
175427
175464
175397
175292
175339
175397
175334
175492
175422
175403
175336
175259
175327
175321
175372
175468
175326
175292
175314
175210
175186
175347
175429
175422
175363
175312
175292
175381
175403
175380
175321
175330
175456
175464
175402
175353
175335
175431
175345
175376
175359
175355
175300
175105
175016
175027
175156
175532
175594
175504
175481
175403
175359
175293
175372
175260
175253
175327
175273
175300
175420
175399
175300
175211
175231
175178
175267
175329
175260
175154
175138
175252
175420
175433
175573
175408
175282
175312
175152
175219
175377
175411
175358
175249
175197
175227
175224
175211
175246
175314
175276
175318
175379
175348
175311
175277
175284
175227
175204
175173
175130
175217
175238
175246
175340
175394
175299
175351
175256
175163
175265
175372
175384
175247
175306
175300
175300
175171
175197
175344
175317
175288
175141
175157
175246
175102
175188
175264
175236
175246
175279
175129
175193
175079
174966
175147
175142
175107
175069
175204
175250
175236
175172
175218
175133
175113
175134
175207
175271
175270
175287
175221
175053
175026
175054
175059
175120
175256
175189
175156
175165
175175
175327
175285
175106
175080
175215
175388
175395
175486
175483
175402
175384
175285
175341
175214
175176
175098
175014
175089
174895
174860
174771
174625
174610
174589
174667
174698
174738
174812
174841
174801
174950
175020
174929
174856
174899
174980
175072
175150
175078
175096
175061
175017
174894
174921
175174
175284
175177
175145
175160
175124
175121
175218
175222
175185
175102
175111
175068
175089
175104
175144
175083
175145
175161
175055
175063
175114
175129
175142
175097
175178
175249
175120
175059
175067
174949
175033
175274
175271
175224
175240
175173
175142
175209
175347
175231
175199
175017
175036
175108
175236
175443
175347
175293
175330
175138
175187
175240
175187
175178
175133
175276
175312
175264
175248
175278
175199
175163
175192
175179
175187
175177
175119
175234
175305
175238
175180
175096
175106
175322
175413
175406
175277
175195
175249
175248
175295
175343
175296
175404
175292
175240
175151
175094
175185
175219
175180
175209
175278
175174
175227
175302
175243
175202
175184
175270
175286
175213
175186
175231
175146
175116
175032
175136
175154
175138
175206
175270
175279
175295
175259
175233
175222
175287
175349
175193
175223
175215
175288
175384
175221
175155
175198
175307
175339
175317
175293
175215
175266
175285
175313
175266
175223
175303
175297
175301
175390
175413
175443
175466
175382
175410
175323
175356
175423
175359
175206
175257
175350
175442
175471
175447
175359
175428
175530
175569
175512
175509
175422
175401
175394
175403
175373
175448
175515
175529
175512
175451
175518
175565
175528
175605
175733
175618
175394
175336
175446
175494
175736
175708
175676
175664
175539
175456
175460
175601
175546
175586
175541
175638
175583
175609
175553
175559
175563
175601
175634
175573
175600
175554
175673
175646
175568
175590
175651
175648
175638
175614
175608
175589
175614
175591
175539
175652
175648
175544
175662
175612
175713
175721
175714
175712
175604
175572
175676
175717
175497
175461
175549
175793
175856
175680
175655
175694
175681
175681
175588
175654
175657
175696
175762
175774
175762
175774
175705
175682
175722
175697
175693
175668
175714
175755
175655
175594
175705
175773
175898
175850
175820
175865
175913
175878
175734
175686
175695
175701
175791
175822
175818
175742
175775
175886
175749
175809
175857
175745
175743
175822
175756
175716
175865
175984
175955
175949
175808
175916
175981
175881
175840
175853
175892
175921
175798
175870
175958
176006
176034
176101
175871
175874
175936
176070
175929
175797
175868
175861
175899
175838
175926
175903
175871
175900
175875
175869
176020
176078
176024
175955
176054
176037
175980
176020
175909
175782
175713
175767
175923
175903
175988
176064
176026
175994
175930
176015
176050
175999
175839
175769
175860
175972
176030
176031
175877
175821
175904
176008
176023
176012
176013
175988
176021
175936
175905
175890
175987
176145
176113
176038
176031
176083
176126
176062
176116
176129
176203
176226
176254
176293
176342
176220
176045
176007
176008
176048
176086
176022
175936
175790
175636
175618
175647
175680
175592
175548
175680
175699
175766
175821
175836
175835
175881
175927
175949
176130
176157
176009
175954
175946
176136
176092
176063
176091
176045
176108
176128
175990
175809
175830
176054
176113
176153
176231
176100
175984
176088
176200
176262
176220
176268
176165
176085
176065
176178
176146
176081
176142
176173
176089
176077
176257
176379
176232
176190
176166
176142
176165
176219
176139
176158
176024
175990
176019
176161
176321
176315
176186
176268
176238
176232
176230
176286
176252
176174
176113
176177
176107
176035
176123
176293
176316
176224
176230
176235
176243
176235
176205
176203
176118
176025
176086
176077
176089
176263
176553
176430
176330
176235
176154
176248
176188
176094
176101
176070
176066
176083
176177
176173
176249
176259
176219
176196
176191
176203
176199
176173
176082
175978
175899
175964
176033
176093
176166
176083
176067
176100
176099
176084
176092
176050
176049
176085
176155
176212
176156
176055
176011
176062
176074
176101
176135
176103
176035
175923
175997
175958
175987
176039
175914
175989
176087
176156
176078
176082
176019
176019
176127
176135
175976
176018
176049
175973
176038
176230
176088
176056
176012
176019
175903
176052
176174
176140
176174
176048
176041
176042
176007
176120
176047
176070
176073
176045
176075
176004
176056
175975
175916
175971
176057
176290
176191
176101
176079
176011
176067
176086
176034
175948
175930
175987
176157
176232
176249
176172
176099
175976
175996
176052
176105
176093
176044
176104
176095
176065
176047
176008
176039
176022
176108
176112
176004
176011
175946
175904
176017
175977
175936
176005
176038
176048
176058
176045
176015
176028
176078
176067
176052
176004
175953
175918
175938
175981
175977
175943
175825
175804
175774
175970
176194
175968
175988
176029
176154
176053
175968
175891
175848
175887
175933
175946
176021
176101
176129
176078
175975
175948
175880
175834
175824
175882
175948
175932
175999
176032
176109
176042
175935
175845
175922
175892
175870
176057
176017
176013
175986
175932
175898
175844
175865
176010
175930
175929
176062
175992
176003
175920
175826
175828
175815
175885
175910
175907
175891
175880
175961
175944
175939
175914
175903
175984
175924
175810
175849
175858
175901
175900
175774
175868
175935
176065
176002
175987
175887
175822
175896
175879
175897
175761
175774
175815
175878
175950
175791
175658
175757
175812
175753
175787
175761
175784
175856
175806
175721
175664
175807
175842
175805
175726
175644
175679
175703
175693
175745
175742
175691
175699
175625
175574
175556
175617
175692
175902
175918
175740
175685
175643
175576
175683
175799
175972
175909
175861
175888
175837
175832
175758
175718
175864
175853
175936
175950
175903
175700
175666
175653
175493
175247
175210
175119
175179
175175
175055
174954
175010
175292
175242
175205
175232
175173
175254
175273
175286
175320
175273
175401
175504
175372
175332
175242
175320
175369
175425
175366
175332
175309
175342
175314
175390
175356
175321
175306
175242
175201
175281
175542
175496
175316
175273
175286
175321
175362
175308
175362
175399
175321
175296
175323
175342
175291
175233
175397
175467
175225
175204
175261
175207
175206
175207
175195
175279
175255
175179
175165
175209
175279
175195
175148
175159
175130
175213
175234
175158
175199
175205
175288
175357
175176
175116
175146
175124
175090
175154
175218
175198
175221
175262
175355
175271
175109
175067
175193
175331
175466
175313
175208
175063
175064
175343
175263
175262
175197
175180
175144
175175
175189
175135
174996
174959
174977
175077
175116
174998
174980
175020
175052
174996
174953
174917
174912
174826
174903
174895
174860
174869
174854
174858
174691
174619
174622
174766
174771
174831
174834
174788
174829
174780
174791
174602
174535
174658
174766
174808
174909
174778
174731
174507
174506
174587
174595
174582
174621
174623
174548
174525
174598
174849
174897
174787
174635
174683
174583
174525
174642
174745
174656
174603
174625
174628
174560
174656
174632
174669
174595
174591
174571
174516
174511
174548
174542
174566
174624
174611
174610
174588
174491
174505
174561
174498
174659
174746
174706
174740
174654
174544
174639
174629
174568
174530
174442
174420
174490
174569
174601
174530
174636
174560
174465
174366
174382
174472
174567
174639
174608
174496
174594
174559
174441
174439
174476
174612
174601
174568
174485
174403
174499
174526
174421
174436
174398
174385
174530
174455
174370
174454
174530
174496
174561
174437
174356
174494
174421
174422
174517
174491
174453
174484
174586
174519
174461
174347
174288
174356
174392
174568
174588
174498
174452
174345
174327
174438
174543
174446
174435
174462
174435
174417
174194
174279
174387
174468
174444
174435
174514
174511
174548
174427
174450
174455
174527
174384
174554
174574
174502
174400
174437
174366
174336
174401
174334
174430
174457
174454
174555
174559
174520
174519
174403
174370
174354
174404
174390
174391
174429
174497
174549
174557
174497
174497
174465
174593
174574
174485
174398
174457
174649
174644
174501
174417
174456
174481
174394
174400
174467
174385
174400
174473
174521
174475
174370
174341
174371
174459
174493
174495
174510
174377
174394
174413
174304
174167
174163
174310
174525
174708
174644
174519
174316
174294
174262
174374
174484
174407
174300
174275
174327
174326
174325
174232
174158
174274
174397
174422
174510
174391
174343
174314
174333
174489
174442
174482
174474
174500
174571
174569
174613
174564
174527
174468
174444
174488
174445
174279
174341
174354
174304
174219
174067
173912
173841
173947
174021
173989
173845
173886
173981
174075
174088
174029
174055
174155
174183
174219
174226
174259
174265
174171
174150
174226
174191
174186
174216
174162
174240
174164
174237
174332
174291
174228
174174
174261
174311
174310
174199
174094
174344
174556
174323
174300
174236
174162
174220
174313
174314
174230
174249
174217
174095
174118
174155
174133
174092
174067
174195
174279
174300
174227
174169
174121
174163
174252
174381
174312
174228
174180
174158
174099
174106
174061
174043
174175
174221
174180
174216
174198
174291
174319
174077
173940
173967
173973
174002
174156
174234
174187
174220
174133
174048
174077
174133
174148
174055
174027
174105
174208
174246
174161
174013
173954
173921
173992
174053
174117
174113
174101
174215
174134
174034
174052
174027
173993
173890
173913
174060
173940
174064
174076
174090
173937
173921
173901
173886
173884
173922
173859
173909
173873
173858
173879
173830
173886
173817
173878
173835
173862
173778
173883
173875
173933
173852
173801
173829
173920
173980
173836
173768
173768
173672
173582
173703
173734
173665
173652
173652
173595
173696
173815
173786
173769
173772
173749
173719
173714
173648
173619
173678
173732
173814
173826
173800
173787
173682
173669
173623
173632
173689
173712
173710
173602
173618
173642
173646
173743
173798
173697
173643
173662
173703
173741
173767
173723
173705
173673
173681
173737
173821
173772
173762
173774
173553
173592
173531
173589
173734
173668
173770
173703
173753
173785
173635
173647
173690
173642
173613
173613
173664
173627
173488
173536
173636
173695
173626
173616
173656
173667
173673
173668
173649
173656
173568
173465
173546
173616
173590
173574
173686
173789
173689
173610
173546
173559
173736
173809
173680
173581
173688
173715
173524
173431
173463
173620
173651
173753
173704
173605
173579
173608
173704
173570
173473
173578
173620
173503
173414
173455
173661
173710
173758
173829
173675
173539
173531
173616
173741
173729
173718
173738
173684
173542
173516
173491
173485
173521
173698
173647
173786
173726
173641
173630
173576
173534
173470
173663
173696
173595
173583
173553
173637
173596
173615
173740
173899
173750
173583
173504
173542
173593
173652
173688
173596
173645
173609
173557
173561
173696
173795
173722
173658
173696
173609
173507
173665
173658
173698
173598
173648
173677
173639
173544
173461
173457
173491
173624
173767
173656
173627
173598
173615
173564
173537
173586
173659
173626
173621
173531
173523
173596
173465
173450
173415
173354
173512
173719
173658
173568
173634
173569
173577
173666
173504
173538
173595
173700
173552
173617
173593
173692
173634
173505
173461
173514
173576
173667
173776
173624
173601
173654
173586
173617
173700
173782
173805
173775
173809
173829
173819
173671
173647
173514
173392
173451
173418
173325
173188
173125
173145
173160
173161
173101
173003
173108
173147
173167
173244
173272
173421
173462
173387
173365
173370
173346
173434
173442
173374
173359
173523
173686
173680
173575
173524
173425
173448
173410
173465
173510
173505
173583
173571
173637
173507
173501
173402
173297
173384
173531
173618
173724
173660
173565
173533
173559
173580
173528
173538
173535
173584
173554
173592
173544
173461
173473
173422
173519
173475
173465
173586
173698
173650
173559
173543
173625
173608
173540
173612
173539
173599
173605
173599
173603
173528
173503
173681
173638
173664
173614
173527
173555
173539
173421
173362
173525
173631
173746
173805
173782
173706
173619
173644
173603
173542
173536
173541
173672
173666
173549
173632
173711
173664
173622
173545
173552
173500
173437
173581
173628
173672
173610
173473
173436
173515
173572
173535
173518
173682
173635
173693
173735
173579
173536
173463
173475
173506
173483
173545
173634
173761
173686
173574
173599
173437
173576
173656
173598
173523
173591
173544
173475
173500
173500
173521
173460
173482
173566
173604
173476
173479
173491
173426
173455
173392
173432
173437
173492
173514
173666
173630
173548
173552
173474
173403
173480
173560
173461
173568
173500
173553
173490
173567
173637
173576
173525
173426
173409
173454
173494
173501
173500
173535
173486
173526
173655
173648
173495
173456
173538
173748
173667
173538
173499
173448
173441
173482
173537
173386
173460
173564
173563
173629
173561
173492
173515
173496
173494
173517
173469
173531
173552
173481
173349
173343
173417
173644
173655
173543
173577
173592
173539
173506
173510
173378
173388
173498
173492
173524
173476
173481
173508
173445
173566
173486
173535
173471
173411
173437
173344
173361
173514
173545
173604
173546
173562
173519
173467
173475
173449
173492
173604
173595
173537
173413
173422
173464
173461
173491
173531
173512
173534
173552
173500
173431
173445
173396
173366
173429
173404
173357
173410
173462
173538
173558
173600
173504
173380
173487
173575
173607
173679
173598
173568
173494
173492
173560
173443
173406
173393
173361
173525
173535
173549
173489
173495
173512
173490
173482
173340
173483
173539
173566
173635
173569
173578
173496
173384
173328
173388
173528
173599
173541
173448
173443
173503
173475
173575
173506
173535
173549
173553
173619
173425
173429
173504
173568
173527
173499
173500
173513
173637
173702
173620
173589
173567
173545
173415
173350
173383
173486
173659
173632
173677
173668
173676
173507
173359
173406
173393
173553
173516
173486
173473
173396
173417
173470
173485
173489
173561
173598
173556
173463
173515
173502
173512
173367
173407
173369
173303
173433
173589
173739
173714
173550
173446
173415
173453
173349
173347
173436
173421
173532
173554
173515
173557
173430
173458
173502
173492
173501
173596
173830
173907
173841
173747
173767
173708
173647
173561
173445
173326
173282
173256
173133
173165
173156
173086
173042
172948
173056
173136
173165
173170
173169
173083
173105
173208
173242
173217
173203
173329
173467
173441
173495
173538
173499
173391
173336
173339
173344
173397
173460
173377
173249
173381
173448
173505
173410
173410
173464
173504
173546
173593
173539
173398
173197
173122
173130
173213
173350
173378
173602
173447
173480
173557
173565
173498
173502
173435
173401
173326
173384
173560
173372
173409
173417
173377
173366
173344
173424
173412
173407
173400
173336
173397
173486
173465
173405
173346
173394
173378
173439
173590
173425
173298
173352
173360
173261
173278
173405
173375
173464
173412

[算法提取后的结构化特征]
# 由 EcgFeatureExtractor.extract() + toPromptText() 在手机端重建
# 与手表端发给 DeepSeek 的提示词文本一致（DS 实际收到的数据）
# 注意: 用户 profile（年龄性别）未存入测量记录，手机端重建时为'未知'
#       助手如需年龄性别做医学判断，需用户单独提供

[用户属性]

[全局指标]
采样率:500Hz 时长:30.6s 总点数:15310
R波检测:43个 平均心率:84bpm 范围:71-88bpm
R波位置(样本索引):674,855,1013,1185,2160,2709,3066,3780,4775,4920,5006,5152,5399,5738,6300,6569,7064,7774,7950,8650,9382,9570,9803,10402,10543,10875,11293,11420,11765,11897,12039,12547,12830,12977,13096,13237,13544,13631,13890,14011,14170,14375,14684
RR间期序列(ms，[*]为偏离均值>20%的异常间期，多为早搏/误检):[362*] [316*] [344*] [1950*] [1098*] 714 [1428*] [1990*] [494*] 678 [1124*] [538*] 990 [1420*] [352*] [1400*] [1464*] [376*] [466*] [1198*] [664*] 836 690 [1016*] [566*] [614*] [518*] [318*] [410*] [618*]
RR差值序列(ms):-46,28,1606,-852,-384,714,562,-1496,184,446,-586,452,430,-1068,1048,64,-1088,90,732,-534,172,-146,326,-450,48,-96,-200,92,208
SDNN:118.4ms RMSSD:189.5ms pNN50:75.0%
QRS宽度(本地估测,ms):59±16
PR间期(本地估测,ms):168±60
QT间期(本地估测,ms):374 QTc(Bazett):442ms QTc(Fridericia):418ms
R波平均振幅:0.36mV
R波极性:负向(负向提示导联反接/位置异常)
T/R振幅比:1.00(正常0.1-0.5，<0.1低平，>0.5高尖)
ST段偏移(本地估测,mV):-0.070(正常±0.05，>0.1抬高，<-0.1压低)
信号质量:1.00 良好

[节律判别特征]
RR变异系数:0.566(高度不规律)
Poincaré散点形态:扇形(高度不规律，疑似房颤)
短-长RR配对数(早搏代偿):3个

[逐秒分段]
时段(s)  R波  振幅范围(mV)  峰峰值(mV)  最大斜率(mV/s)  RMS(mV)
0.0-1.0  0  -1.26~1.01  2.27  161.50  0.64
1.0-2.0  2  -0.59~0.61  1.20  169.00  0.19
2.0-3.0  2  -0.55~0.68  1.23  134.00  0.17  ← 短RR+代偿间隙(早搏可能)
3.0-4.0  0  -0.94~0.77  1.71  132.50  0.39  ← 代偿间隙(配合前秒短RR)
4.0-5.0  1  -0.77~0.92  1.68  132.00  0.33
5.0-6.0  1  -0.77~0.80  1.57  121.50  0.35
6.0-7.0  1  -1.30~0.96  2.26  171.00  0.56
7.0-8.0  1  -0.94~1.01  1.95  142.00  0.47
8.0-9.0  0  -0.75~0.58  1.33  117.50  0.33  ← 本秒无R波(心率<60或代偿间隙)
9.0-10.0  2  -0.90~1.02  1.92  166.00  0.43
10.0-11.0  3  -0.63~0.61  1.25  163.00  0.24
11.0-12.0  1  -0.81~0.62  1.43  135.50  0.35
12.0-13.0  1  -0.88~1.83  2.71  137.00  0.54
13.0-14.0  1  -2.78~1.81  4.59  187.50  1.09
14.0-15.0  1  -0.82~0.64  1.46  145.00  0.34
15.0-16.0  2  -0.79~0.93  1.72  195.50  0.35  ← 短RR+代偿间隙(早搏可能)
16.0-17.0  0  -1.00~0.84  1.84  117.50  0.48  ← 代偿间隙(配合前秒短RR)
17.0-18.0  1  -0.52~0.40  0.92  139.50  0.14
18.0-19.0  1  -0.96~0.92  1.88  159.50  0.41
19.0-20.0  2  -0.80~0.65  1.45  201.00  0.24
20.0-21.0  1  -0.45~0.48  0.93  140.00  0.21
21.0-22.0  2  -0.69~0.64  1.33  126.50  0.23
22.0-23.0  2  -0.60~0.62  1.22  124.00  0.23
23.0-24.0  2  -2.21~1.29  3.51  148.00  1.14
24.0-25.0  1  -1.05~0.87  1.92  149.00  0.37
25.0-26.0  3  -0.72~0.87  1.59  158.00  0.39
26.0-27.0  2  -0.72~0.55  1.27  188.00  0.19
27.0-28.0  3  -0.44~0.57  1.00  145.00  0.16
28.0-29.0  3  -0.86~1.27  2.13  141.00  0.46
29.0-30.0  1  -0.64~0.61  1.24  110.50  0.19
逐秒RMS:0.645,0.190,0.173,0.393,0.334,0.349,0.558,0.471,0.326,0.427,0.239,0.346,0.544,1.089,0.343,0.351,0.475,0.137,0.407,0.240,0.206,0.234,0.226,1.139,0.373,0.387,0.195,0.163,0.464,0.188

[AI 解读]
# DeepSeek 返回的原始 JSON（未清洗，可能含 markdown 代码块包裹）
{
  "平均心率": 84,
  "心率范围": "84-88 bpm",
  "心率稳定性": "不稳定,RR间期变异极大",
  "心率置信度": "高",
  "SDNN_ms": 118.4,
  "RMSSD_ms": 189.5,
  "pNN50_pct": 75.0,
  "HRV解读": "HRV显著升高,已剔除早搏RR后仍异常高,结合节律分析提示房颤导致的心率变异度增大,而非自主神经调节的正常表现",
  "HRV置信度": "中",
  "节律判断": "高度提示心房颤动",
  "RR间期规律性": "RR间期极度不规律,变异系数0.566,Poincaré散点扇形,无任何连续3个RR间期相近,完全不具备周期性",
  "早搏提示": ["短-长RR配对数3个,但房颤时也可出现类似早搏的配对,不能区分"],
  "节律置信度": "高",
  "PR间期_ms": 168,
  "PR判断": "正常范围(120-200ms),但有较大误差",
  "PR置信度": "中",
  "QRS宽度_ms": 59,
  "QRS判断": "正常范围(80-120ms),但数值偏低,可能为估测误差",
  "QRS置信度": "低",
  "QTc_ms": 442,
  "QTcFridericia_ms": 418,
  "QTc判断": "QTc Bazett 442ms略高于正常上限(440ms),但Fridericia 418ms正常,且QT间期估测偏短,需专业方法确认",
  "QTc置信度": "中",
  "间期数据来源": "本设备本地算法估测,误差约±15ms",
  "信号质量": "良好",
  "噪声段": ["13.0-14.0s 振幅偏高可能为噪声", "23.0-24.0s 振幅异常高"],
  "异常提示": ["R波极性负向,提示导联反接或位置异常", "ST段偏移-0.07mV,接近正常下限(-0.1mV),但无波形确认", "T/R比值1.00,显著高于正常范围(0.1-0.5),提示T波高尖可能"],
  "综合解读": "18岁男性,30.6秒腕表ECG显示RR间期极度不规律,变异系数0.566,Poincaré散点呈典型扇形,RR差值序列持续大幅波动,满足房颤四项判断标准,高度提示心房颤动（虽年轻人少见,但数据特征典型）。同时存在R波负向、T/R比值升高、ST段轻度偏移等异常,需进一步评估。HRV数值异常升高为房颤所致,非自主神经调节正常表现。QTc Bazett略高但Fridericia正常,QRS宽度估测偏低可能为误差。",
  "健康建议": ["立即就医复查标准12导联心电图以明确节律诊断", "正确佩戴设备确保导联方向正确（R波负向可能为反接）", "若确诊房颤,需进一步评估心功能及抗凝治疗风险"],
  "免责声明": "本报告基于腕表单导联ECG统计特征生成,间期为本地算法估测,仅供健康参考,不作为医疗诊断依据。如有不适请就医复查标准12导联心电图。"
}
