========== ECG 算法诊断包 ==========
测量时间: 2026-07-17 14:05:42
测量时间戳:1784268342323
采样率:500 Hz
数据点数:15340
时长:30.7 秒
分析方法:heartvoice

[原始 ECG 数据]
# 单位: mV×1000 整数（如 500 = 0.5mV，-1000 = -1.0mV）
# 采样率: 500 Hz，连续采样，无降采样无压缩
# 用途: 助手据此复现本地算法行为（基线漂移/噪声段/R波检测）
# 格式: 每行一个数值，行号=采样点索引（第1行=索引0，即 t=0.000s）
160601
160782
160908
160771
160616
160346
160042
159900
159886
160076
160215
160482
160596
160449
160248
159971
159841
159744
159823
160052
160147
160391
160499
160398
160193
159979
159707
159567
159810
159967
160101
160380
160561
160496
160317
160080
159731
159483
159530
159674
159904
160151
160351
160285
160090
159865
159636
159427
159395
159558
159767
160039
160249
160170
159986
159815
159519
159375
159438
159555
159650
159919
160065
160104
159924
159684
159490
159335
159349
159523
159744
159991
160114
160200
159975
159740
159427
159389
159336
159510
159716
160024
160166
160062
159825
159663
159459
159326
159213
159429
159593
159853
160010
159965
159784
159533
159288
159174
159104
159216
159354
159684
159813
159804
159558
159323
158996
158822
158789
159010
159192
159410
159511
159525
159309
159126
158893
158669
158573
158686
158844
159193
159374
159312
159149
159001
158802
158661
158566
158714
158826
159094
159216
159178
159064
158837
158605
158441
158356
158495
158716
159054
159113
159043
158862
158636
158370
158211
158140
158269
158434
158746
158878
158855
158676
158499
158312
158146
158087
158213
158323
158531
158701
158745
158609
158406
158133
157961
157947
158029
158113
158386
158580
158671
158616
158402
158092
157913
157889
157991
158068
158310
158485
158532
158389
158177
157996
157845
157723
157815
158031
158304
158535
158602
158471
158240
157929
157751
157747
157890
157940
158135
158293
158393
158339
158253
158087
157888
157834
157865
157920
158145
158308
158317
158186
158000
157849
157725
157625
157684
157776
158042
158079
157978
157800
157586
157359
157083
156933
157037
157155
157396
157602
157635
157541
157482
157344
157173
157119
157236
157422
157703
157962
158049
157954
157748
157531
157346
157389
157541
157673
157823
158005
158057
157929
157783
157624
157391
157233
157373
157484
157820
158009
158055
157977
157773
157535
157328
157320
157424
157599
157807
157996
158065
157979
157810
157636
157421
157317
157468
157599
157859
158046
158115
158033
157884
157717
157470
157367
157476
157582
157822
158042
158231
158087
157881
157675
157461
157337
157425
157552
157786
157994
158059
157996
157856
157634
157324
157245
157532
157778
158002
158152
158183
158032
157713
157445
157299
157252
157419
157560
157712
157882
157953
157852
157667
157452
157179
156995
157026
157098
157378
157743
157824
157649
157427
157184
156795
156655
156730
156900
157134
157362
157502
157330
157006
156860
156700
156647
156746
156871
157059
157264
157370
157395
157289
157087
156822
156728
156696
156877
157196
157474
157636
157575
157311
157132
156884
156725
156816
157029
157248
157507
157595
157489
157215
157010
156794
156645
156668
156854
157119
157372
157515
157389
157150
156946
156642
156568
156758
156888
157041
157233
157319
157223
156972
156811
156619
156568
156637
156706
156893
157172
157292
157192
156940
156800
156474
156331
156397
156556
156704
156933
157120
157111
156815
156587
156291
156154
156191
156372
156648
156880
157017
156858
156611
156469
156192
156093
156111
156251
156523
156699
156778
156738
156524
156437
156214
156083
156051
156183
156413
156776
156907
156786
156598
156494
156198
156103
156137
156306
156514
156681
156768
156818
156602
156485
156271
156178
156100
156239
156427
156645
156676
156668
156471
156386
156246
156141
156138
156248
156443
156703
156879
156904
156691
156566
156314
156125
156193
156238
156426
156710
156841
156912
156692
156574
156343
156076
156126
156260
156510
156748
156946
156963
156744
156583
156353
156179
156117
156240
156408
156670
156831
156831
156612
156525
156307
156186
156195
156240
156392
156636
156738
156762
156539
156390
156165
155985
156037
156180
156322
156612
156722
156710
156543
156323
156053
155995
156021
156029
156131
156370
156558
156519
156455
156258
156052
155907
155879
155969
156100
156351
156467
156489
156343
156188
155908
155696
155690
155862
156054
156280
156522
156562
156430
156312
156059
155841
155833
155930
156101
156368
156524
156503
156336
156166
156125
155940
155894
155967
156149
156369
156554
156622
156545
156370
156121
155906
155843
155982
156219
156456
156655
156695
156518
156336
156103
155846
155718
155753
155930
156126
156333
156294
156092
155867
155602
155384
155372
155655
155775
156005
156211
156311
156220
156195
156071
155873
155769
155861
156041
156293
156505
156578
156457
156317
156113
155917
155873
155985
156141
156398
156618
156643
156413
156249
156129
155957
155841
155923
156034
156239
156506
156632
156468
156327
156106
155907
155784
155891
156081
156369
156584
156668
156482
156297
156008
155829
155879
155994
156162
156344
156582
156716
156489
156344
156218
155899
155854
156040
156182
156352
156610
156706
156536
156404
156166
155982
155896
156019
156216
156355
156550
156728
156629
156474
156263
156007
155895
155948
156096
156326
156631
156829
156674
156530
156264
155915
155798
155913
156152
156414
156662
156782
156629
156397
156231
156005
155839
155889
156073
156244
156475
156632
156486
156373
156213
155883
155788
155878
156042
156255
156460
156494
156401
156243
156101
155863
155724
155746
155964
156114
156301
156362
156264
156203
156172
155950
155765
155799
156011
156163
156402
156524
156479
156320
156113
155837
155728
155705
155892
156088
156352
156537
156444
156280
156111
155813
155682
155681
155891
156111
156364
156496
156409
156220
155999
155800
155660
155648
155854
156097
156282
156364
156330
156143
156017
155749
155591
155628
155832
156052
156289
156367
156330
156162
155989
155743
155565
155549
155751
155909
156111
156255
156225
156094
155995
155713
155509
155419
155618
155924
156257
156320
156188
155960
155773
155475
155337
155307
155491
155634
155926
156180
156118
155956
155752
155480
155407
155311
155388
155533
155752
155948
156030
155884
155652
155321
155191
155185
155397
155628
155916
156046
155967
155869
155734
155436
155294
155285
155437
155548
155775
156025
156051
155962
155869
155599
155448
155359
155517
155671
155907
156117
156144
156042
155850
155615
155412
155367
155644
155769
155965
156180
156166
156051
155842
155560
155352
155388
155582
155788
156085
156202
156150
156045
155830
155588
155465
155430
155574
155699
156048
156257
156192
156092
155934
155750
155597
155471
155623
155848
156113
156206
156217
156130
155997
155718
155565
155515
155724
155826
156120
156324
156283
156178
156025
155766
155615
155545
155727
155847
156002
156151
156264
156211
155988
155764
155540
155548
155720
155916
156157
156389
156352
156273
156045
155779
155609
155557
155687
155820
156066
156256
156213
156160
155907
155659
155474
155459
155676
155878
156143
156339
156311
156172
155962
155725
155486
155467
155624
155895
156092
156276
156270
156226
156064
155759
155518
155451
155596
155861
156087
156294
156268
156197
156087
155862
155676
155591
155673
155906
156204
156472
156616
156573
156348
156080
155841
155667
155738
155919
156108
156221
156218
156022
155844
155600
155346
155170
155296
155422
155770
156053
156136
156067
155890
155652
155426
155324
155506
155800
156070
156303
156418
156347
156163
155972
155741
155594
155796
156067
156261
156466
156478
156351
156134
156007
155833
155718
155870
155997
156224
156480
156589
156523
156294
156064
155917
155862
155987
156106
156313
156494
156582
156566
156537
156367
155959
155709
155753
155917
156140
156334
156339
156290
156240
156092
155803
155667
155843
155946
156111
156356
156438
156394
156293
156057
155828
155666
155678
155893
156196
156444
156493
156429
156281
156114
155753
155570
155682
156011
156255
156534
156600
156576
156376
156159
155912
155763
155847
155953
156164
156432
156522
156448
156216
156077
155860
155770
155831
155899
156114
156364
156439
156438
156335
156109
155922
155736
155750
155907
156073
156364
156507
156488
156302
156085
155787
155663
155831
156024
156146
156278
156342
156424
156308
156158
155892
155695
155748
155948
156173
156437
156507
156519
156336
156175
156037
155822
155818
156016
156303
156517
156637
156624
156468
156341
156132
155956
155947
156092
156220
156463
156628
156681
156587
156433
156146
155959
156011
156171
156374
156626
156684
156641
156487
156353
156141
155937
156034
156238
156361
156590
156642
156680
156489
156215
156009
155927
156126
156288
156332
156551
156668
156683
156495
156277
156072
155952
155987
156167
156290
156476
156650
156711
156492
156349
156220
156011
155988
156150
156287
156568
156764
156737
156465
156286
156122
156014
156128
156285
156392
156623
156764
156745
156588
156365
156123
155948
156030
156207
156323
156648
156833
156820
156660
156526
156323
156060
156018
156184
156404
156665
156766
156781
156616
156448
156267
156073
156145
156266
156375
156615
156803
156831
156685
156570
156351
156092
156153
156320
156381
156604
156786
156856
156918
156801
156454
156336
156243
156280
156415
156740
157031
157069
156952
156754
156431
156163
156192
156373
156562
156847
157045
157140
157000
156817
156612
156344
156277
156326
156516
156830
157011
157080
157013
156834
156552
156266
156304
156459
156620
156842
157042
157043
156924
156737
156430
156161
156221
156536
156773
156928
157044
157027
156864
156806
156624
156405
156354
156480
156633
156827
156990
157060
156907
156701
156504
156261
156258
156459
156682
156912
157035
157070
156940
156748
156552
156357
156342
156493
156646
156860
157043
157165
157048
156937
156727
156448
156327
156477
156658
156916
157121
157212
157043
156869
156727
156520
156382
156516
156711
156916
157059
157138
157000
156872
156676
156459
156413
156553
156656
156798
156965
157148
157094
156967
156847
156589
156428
156509
156690
156935
157094
157223
157123
156890
156719
156572
156471
156668
156777
156952
157126
157233
157153
157066
156819
156543
156457
156506
156649
156839
156988
157087
157023
156826
156722
156551
156511
156636
156758
156952
157098
157233
157165
156946
156715
156500
156451
156513
156697
156871
157090
157201
157096
156882
156652
156392
156374
156611
156889
157127
157308
157468
157426
157262
157114
156834
156748
156747
156857
157021
157135
157183
157147
157002
156755
156368
156144
156179
156333
156416
156644
156876
156822
156671
156481
156241
156147
156225
156435
156676
157008
157164
157099
156934
156800
156551
156395
156450
156605
156736
156897
157014
157077
156858
156699
156475
156307
156316
156530
156696
156910
157132
157176
156945
156851
156548
156414
156422
156573
156740
157030
157295
157339
157006
156825
156603
156492
156489
156594
156793
156987
157212
157307
157143
156974
156626
156558
156583
156692
156859
157019
157255
157311
157129
156917
156643
156551
156564
156780
156994
157163
157321
157318
157156
157001
156670
156597
156624
156716
156920
157146
157301
157345
157133
156956
156665
156509
156555
156761
156967
157203
157370
157329
157102
156849
156595
156568
156569
156737
156930
157260
157396
157281
157095
156968
156674
156546
156577
156689
156836
157080
157313
157333
157144
156990
156745
156578
156567
156700
156952
157130
157276
157263
157083
157055
156918
156797
156728
156917
157102
157332
157524
157532
157392
157214
156852
156710
156784
156921
157237
157513
157679
157668
157501
157308
157012
156839
156812
156955
157132
157224
157355
157412
157368
157206
156913
156719
156703
156793
156961
157231
157481
157440
157250
157064
156819
156708
156684
156809
156932
157120
157338
157333
157185
156995
156728
156536
156518
156737
156879
157025
157344
157412
157208
156991
156727
156620
156574
156674
156849
157057
157242
157321
157176
157046
156773
156508
156522
156581
156784
157065
157376
157433
157234
157021
156749
156582
156509
156579
156718
156997
157310
157373
157295
157110
156790
156585
156536
156640
156780
156960
157153
157171
157017
156990
156900
156612
156548
156681
156785
156935
157196
157323
157181
157024
156726
156471
156382
156612
156886
157082
157288
157352
157252
157051
156729
156554
156500
156566
156822
157102
157331
157391
157295
157095
156839
156617
156492
156671
156926
157100
157280
157345
157163
157052
156860
156712
156614
156738
156902
157027
157251
157363
157206
157070
156836
156652
156529
156642
156854
157047
157337
157430
157253
157049
156809
156616
156505
156685
156950
157067
157292
157409
157248
157027
156817
156661
156584
156698
156950
157210
157422
157500
157449
157311
157137
156930
156973
157065
157254
157378
157565
157620
157493
157251
157070
156873
156829
156951
157049
157196
157391
157478
157408
157243
156980
156786
156728
156849
157185
157392
157547
157570
157446
157245
157014
156841
156777
156874
157029
157146
157385
157469
157440
157299
157064
156836
156785
156937
157057
157201
157420
157504
157411
157168
156928
156918
156977
157107
157206
157254
157506
157561
157524
157352
157096
156799
156770
156922
157141
157287
157506
157521
157393
157198
157012
156842
156733
156746
157064
157180
157424
157445
157343
157130
156920
156764
156760
156721
156964
157133
157337
157501
157530
157227
156953
156781
156779
156857
156998
157108
157315
157433
157424
157250
157001
156798
156732
156775
157012
157389
157639
157688
157619
157365
157122
156826
156707
156756
156944
157181
157437
157367
157192
156884
156632
156408
156316
156405
156617
156739
156992
157181
157232
157077
156888
156697
156589
156678
156887
156999
157221
157325
157369
157271
157160
156960
156822
156849
157003
157142
157392
157505
157444
157295
157080
156844
156678
156793
157038
157251
157400
157361
157362
157290
157279
157121
156920
156891
157077
157193
157403
157513
157470
157414
157222
156963
156830
156888
157034
157201
157498
157590
157545
157427
157241
156968
156860
156858
156992
157157
157379
157527
157624
157489
157305
157087
156925
156944
157116
157301
157555
157740
157636
157352
157137
156977
156896
156983
157065
157212
157463
157636
157609
157469
157271
157024
156871
156837
156938
157126
157445
157608
157588
157403
157189
156994
156763
156861
157077
157182
157415
157603
157648
157449
157215
157012
156868
156837
156942
157112
157353
157592
157637
157497
157268
157024
156814
156832
157082
157242
157474
157688
157647
157478
157368
157169
156950
156973
157049
157145
157434
157716
157764
157608
157424
157238
157026
156914
156996
157135
157453
157722
157735
157618
157451
157213
157110
157086
157218
157339
157588
157816
157865
157665
157481
157312
157148
157114
157199
157344
157556
157846
157921
157717
157522
157346
157147
157051
157172
157319
157608
157787
157766
157691
157572
157301
157072
157010
157213
157364
157489
157713
157803
157703
157497
157330
157033
156863
157015
157214
157534
157744
157776
157757
157510
157295
157080
156920
157032
157251
157545
157774
157813
157645
157408
157238
157019
157052
157212
157341
157469
157673
157807
157880
157747
157491
157163
157032
157248
157426
157639
157855
157981
157909
157703
157522
157248
157148
157261
157427
157695
157881
158009
157936
157667
157454
157233
157145
157301
157486
157664
157836
157990
158002
157785
157600
157340
157216
157287
157408
157638
157899
158047
158019
157800
157651
157453
157348
157332
157484
157654
157913
158051
157999
157815
157616
157377
157246
157256
157404
157593
157877
158050
158022
157843
157669
157386
157259
157210
157307
157527
157738
157899
157961
157828
157716
157431
157304
157317
157468
157617
157811
157964
157983
157843
157690
157419
157286
157268
157428
157557
157789
157962
157984
157848
157716
157422
157218
157271
157441
157585
157818
157957
157954
157752
157617
157398
157289
157260
157419
157623
157866
157915
157939
157765
157672
157510
157323
157219
157385
157681
157985
158057
158036
157809
157651
157369
157236
157243
157479
157685
157962
158123
158077
157821
157713
157450
157312
157328
157471
157603
157871
158056
158058
157919
157753
157495
157285
157280
157398
157601
157833
157971
158027
157887
157694
157475
157268
157187
157324
157547
157860
158014
157946
157829
157688
157386
157188
157183
157279
157453
157714
157972
158029
157818
157612
157303
157068
157162
157392
157631
157836
157942
157923
157724
157570
157355
157161
157154
157238
157554
157831
158037
158127
157971
157820
157535
157318
157318
157381
157567
157703
157788
157659
157489
157332
157038
156775
156706
156733
156956
157152
157356
157538
157341
157207
156987
156817
156803
156855
157128
157493
157659
157703
157556
157476
157294
157101
157125
157243
157448
157708
157877
157811
157665
157516
157259
156995
156984
157233
157429
157565
157730
157758
157607
157520
157299
157135
157063
157143
157317
157571
157800
157888
157739
157589
157306
157057
157126
157202
157386
157630
157855
157885
157752
157610
157345
157115
157077
157174
157382
157620
157852
157931
157779
157682
157465
157193
157050
157115
157302
157580
157761
157968
157972
157779
157502
157257
157158
157239
157447
157684
157914
158029
157856
157685
157441
157208
157082
157110
157378
157712
157980
158041
157890
157766
157478
157159
157041
157133
157348
157600
157850
157882
157691
157538
157316
157078
157001
157061
157279
157449
157630
157703
157504
157376
157183
157058
157022
157002
157274
157480
157610
157686
157611
157448
157247
157078
156931
156962
157218
157441
157661
157752
157626
157439
157245
157019
156902
156947
157165
157338
157547
157730
157677
157568
157398
157176
157041
157002
157177
157371
157616
157746
157606
157443
157263
157081
156970
156999
157166
157413
157687
157818
157681
157528
157259
157015
156876
156903
157214
157461
157654
157697
157652
157438
157242
156996
156903
157015
157208
157366
157561
157613
157526
157411
157245
157011
156953
156883
157120
157319
157518
157632
157623
157423
157227
157016
156852
156838
157087
157241
157430
157519
157476
157367
157260
157041
156890
156845
157044
157242
157536
157658
157559
157372
157190
156968
156845
156772
156999
157247
157573
157693
157659
157427
157215
157037
156954
156979
157116
157275
157452
157653
157748
157589
157332
157010
156908
156941
157181
157349
157606
157684
157618
157508
157372
157122
157002
156942
157129
157349
157553
157659
157631
157464
157249
156995
156830
156839
157051
157193
157485
157617
157635
157554
157351
157077
156941
156879
157057
157116
157462
157671
157714
157480
157272
157053
156896
156872
157089
157286
157506
157610
157529
157389
157263
157101
156976
156991
157166
157355
157595
157691
157647
157446
157226
156990
156889
156938
157119
157328
157523
157675
157616
157480
157362
157176
156936
156938
157139
157266
157467
157681
157648
157560
157426
157144
156956
156916
157006
157228
157480
157767
157758
157501
157309
157063
156984
156993
157144
157299
157551
157778
157640
157478
157310
157058
156900
156933
157133
157328
157579
157724
157674
157564
157371
157103
156957
156949
157118
157280
157498
157694
157636
157523
157392
157183
157027
156969
157179
157363
157602
157746
157720
157596
157462
157264
157010
156952
157082
157230
157470
157731
157721
157582
157397
157193
157089
156915
157082
157297
157588
157755
157791
157728
157533
157251
157069
156977
157183
157358
157570
157759
157765
157677
157567
157347
157166
157072
157238
157423
157559
157783
157792
157658
157499
157310
157140
157064
157238
157338
157500
157723
157766
157646
157490
157326
157109
156966
157087
157274
157562
157851
157847
157716
157472
157165
156966
156928
157197
157438
157592
157772
157827
157682
157467
157250
157102
157021
157220
157480
157634
157846
157941
157832
157650
157472
157234
157081
157210
157330
157504
157791
157794
157650
157341
157042
156764
156566
156657
156866
157093
157283
157307
157205
157026
156955
156887
156823
156904
157131
157300
157546
157691
157662
157565
157328
157150
156977
157065
157287
157441
157626
157640
157718
157593
157361
157105
156951
157134
157430
157613
157875
157912
157788
157593
157328
157117
156978
157121
157359
157555
157779
157877
157821
157603
157319
157060
156964
157060
157295
157491
157717
157803
157742
157550
157303
157027
156919
157090
157274
157462
157654
157692
157567
157326
157172
156996
157048
157147
157366
157484
157708
157797
157686
157494
157293
157033
156918
157018
157322
157470
157741
157806
157870
157618
157418
157149
156986
157031
157298
157478
157691
157752
157681
157439
157286
157044
156901
157089
157330
157459
157651
157685
157687
157456
157268
157045
156864
156825
157018
157264
157536
157635
157649
157435
157237
156943
156813
156823
156915
157110
157370
157685
157752
157485
157251
156964
156859
156981
157139
157305
157572
157658
157617
157447
157274
157059
156895
156958
157187
157301
157569
157663
157705
157544
157364
157107
156891
156859
157049
157229
157535
157639
157674
157537
157397
157092
156889
156889
157048
157203
157491
157724
157759
157629
157466
157165
156935
156905
157036
157173
157445
157740
157830
157669
157452
157143
156961
156994
157159
157258
157423
157525
157575
157484
157355
157031
156759
156735
156912
157219
157581
157664
157661
157470
157207
156922
156790
156867
157045
157255
157453
157475
157471
157405
157259
156990
156792
156843
157033
157221
157415
157563
157560
157369
157162
156892
156710
156831
156949
157172
157330
157473
157491
157358
157286
157070
156829
156874
157023
157165
157330
157472
157564
157378
157247
157042
156758
156872
157027
157242
157438
157616
157671
157515
157326
157039
156766
156713
156959
157207
157439
157714
157691
157477
157318
157066
156846
156822
156997
157213
157424
157584
157665
157600
157415
157129
156840
156847
156999
157124
157393
157594
157638
157416
157182
156933
156755
156870
157033
157189
157461
157592
157635
157514
157358
157165
156888
156777
156961
157189
157440
157645
157752
157555
157400
157180
156982
156910
156999
157168
157419
157597
157738
157620
157399
157195
156877
156770
156896
157127
157367
157744
157925
157717
157492
157249
156988
156916
157033
157294
157462
157679
157744
157565
157396
157268
157152
157053
157197
157358
157485
157605
157686
157614
157483
157358
157225
157023
157083
157251
157418
157630
157762
157717
157556
157323
157062
156963
157076
157220
157380
157680
157781
157684
157567
157364
157071
157022
157085
157258
157506
157756
157878
157729
157510
157273
157048
157095
157300
157549
157678
157795
157937
157796
157538
157396
157162
157058
157161
157327
157522
157753
157957
157731
157510
157338
157040
156941
157032
157311
157488
157687
157870
157826
157614
157421
157091
156949
157014
157193
157484
157687
157907
157848
157565
157350
157042
156981
157031
157169
157365
157616
157719
157687
157513
157382
157107
157097
157157
157371
157554
157675
157819
157777
157727
157595
157221
157085
157108
157253
157304
157472
157539
157443
157142
156850
156570
156531
156592
156818
157017
157241
157457
157498
157344
157206
156961
156858
156894
157095
157294
157541
157691
157754
157606
157499
157249
157135
157081
157279
157488
157578
157638
157625
157494
157485
157236
157156
157171
157344
157497
157708
157856
157823
157651
157498
157176
157053
157021
157150
157308
157551
157818
157886
157696
157501
157249
157128
157104
157234
157332
157515
157676
157720
157564
157527
157337
157180
157127
157223
157373
157608
157787
157766
157633
157480
157170
157081
157127
157327
157418
157581
157695
157734
157605
157490
157223
157105
157189
157307
157427
157585
157732
157746
157609
157465
157271
157217
157189
157319
157507
157708
157831
157799
157585
157453
157155
156994
157013
157109
157270
157473
157766
157815
157614
157463
157136
156972
156992
157089
157274
157466
157639
157649
157420
157195
156921
156845
156899
157120
157273
157492
157718
157631
157482
157319
157113
156893
156843
156943
157161
157412
157696
157749
157586
157321
156992
156832
156850
157000
157248
157463
157680
157730
157519
157362
157086
156910
156888
156962
157139
157368
157630
157708
157545
157347
157055
156862
156939
157075
157318
157520
157656
157699
157521
157325
157055
156787
156685
156972
157220
157441
157704
157654
157415
157223
156992
156911
156895
156975
157205
157408
157597
157620
157467
157259
157000
156821
156834
157070
157133
157235
157417
157473
157499
157402
157142
156904
156830
156974
157158
157293
157519
157635
157489
157254
156977
156765
156720
156921
157094
157295
157575
157697
157551
157371
157081
156841
156776
156911
157133
157273
157449
157491
157375
157198
157002
156840
156774
156958
157194
157385
157545
157593
157396
157243
157021
156821
156767
156935
157131
157214
157369
157459
157366
157156
156997
156918
156827
156886
157113
157272
157472
157515
157333
157172
156969
156868
156770
156892
157103
157167
157374
157587
157509
157332
157013
156769
156680
156845
157091
157220
157452
157526
157390
157197
156918
156762
156793
156907
157075
157218
157441
157569
157436
157143
156944
156778
156715
156906
157037
157147
157395
157470
157401
157221
157015
156809
156777
156912
157093
157193
157374
157465
157475
157287
157025
156785
156717
156879
157080
157311
157532
157565
157476
157268
157058
156887
156766
156844
157035
157231
157431
157446
157344
157190
157018
156877
156765
156837
157100
157246
157370
157491
157469
157276
157026
156794
156723
156823
157069
157128
157331
157440
157443
157339
157122
156947
156866
156952
157176
157278
157514
157571
157480
157275
157131
156922
156847
156884
157079
157201
157409
157444
157431
157326
157159
156908
156793
156973
157117
157201
157433
157513
157546
157415
157193
157012
156864
156911
157117
157206
157482
157550
157409
157197
157109
156992
156871
156943
157069
157156
157449
157592
157575
157395
157153
156984
156914
157108
157348
157373
157545
157656
157659
157523
157345
157172
156979
156890
156981
157010
157311
157451
157296
156941
156712
156571
156464
156423
156589
156863
157210
157476
157383
157177
156986
156771
156681
156733
156941
157071
157384
157571
157577
157399
157223
157018
156887
156937
157089
157259
157458
157480
157430
157333
157202
157021
156947
156999
157158
157291
157512
157586
157548
157342
157129
156959
156840
156884
157010
157173
157541
157672
157592
157350
157121
156961
156900
156912
157021
157153
157475
157631
157678
157457
157227
157080
156871
156893
157080
157227
157473
157630
157639
157504
157301
157052
156924
156933
157066
157171
157402
157537
157561
157557
157380
157264
157087
156975
157054
157179
157402
157591
157653
157517
157292
157086
156932
156962
157102
157225
157377
157466
157517
157382
157231
157033
156851
156852
156929
157118
157338
157567
157582
157446
157228
157037
156794
156734
156880
157023
157216
157368
157380
157293
157066
156979
156844
156771
156864
157022
157264
157469
157436
157247
157078
156918
156727
156726
156897
157050
157269
157476
157486
157272
157015
156847
156690
156581
156868
156993
157274
157511
157591
157411
157190
156990
156789
156738
156840
156991
157247
157427
157509
157384
157187
156986
156784
156695
156803
156952
157177
157416
157480
157368
157234
157034
156744
156624
156721
156799
156971
157340
157485
157467
157212
157011
156808
156723
156808
156962
157145
157283
157444
157384
157194
156995
156784
156703
156808
156946
157125
157346
157392
157241
157012
156864
156688
156681
156789
156995
157217
157346
157403
157315
157118
157014
156807
156686
156731
156785
156959
157210
157380
157336
157100
157005
156801
156663
156724
156880
157165
157373
157435
157308
157064
157003
156801
156682
156761
156954
157181
157346
157403
157404
157282
157051
156772
156678
156755
156913
157099
157324
157425
157349
157163
157042
156830
156771
156843
156964
157124
157355
157447
157411
157159
156984
156768
156713
156786
156974
157244
157494
157507
157410
157206
157071
156873
156786
156789
156933
157097
157353
157506
157416
157160
157004
156751
156695
156695
156814
157092
157384
157511
157474
157211
157064
156785
156630
156625
156847
157192
157416
157469
157428
157216
157049
156834
156691
156764
156936
157159
157362
157479
157396
157194
157095
156903
156753
156796
156915
157091
157349
157460
157408
157217
157111
156883
156763
156705
156932
157135
157405
157486
157381
157142
157022
156851
156757
156749
156894
157095
157327
157431
157433
157245
157113
156944
156802
156713
156842
157046
157357
157486
157465
157245
157075
156807
156702
156816
156970
157195
157339
157482
157472
157286
157107
156839
156691
156682
156848
157107
157347
157465
157452
157256
157144
156881
156656
156715
156867
157050
157315
157493
157429
157297
157203
156995
156757
156816
156864
157070
157344
157544
157527
157285
157174
156934
156724
156735
156930
157174
157356
157530
157568
157399
157246
156928
156701
156766
156857
157080
157336
157420
157398
157123
156969
156805
156718
156806
156955
157195
157314
157466
157503
157280
157142
156839
156559
156656
156826
156935
157286
157489
157501
157352
157204
156992
156736
156687
156839
157097
157300
157472
157476
157293
157220
157130
156969
156916
157035
157186
157356
157478
157509
157362
157107
156866
156617
156515
156508
156621
156819
156955
156987
156740
156623
156473
156307
156270
156399
156474
156699
157029
157321
157279
157079
156883
156704
156608
156667
156881
157115
157346
157381
157205
157093
156884
156662
156597
156728
156924
157093
157279
157306
157209
157135
156925
156723
156644
156729
156971
157196
157358
157402
157192
157024
156861
156668
156615
156719
156903
157082
157328
157384
157193
157071
156880
156714
156676
156777
156939
157074
157229
157282
157154
157054
156914
156738
156651
156760
156971
157153
157356
157431
157265
157169
156971
156676
156612
156696
156914
157107
157295
157416
157295
157181
156899
156706
156582
156751
156966
157212
157405
157420
157240
157071
156897
156715
156718
156764
156880
157031
157272
157360
157203
157115
156934
156659
156491
156582
156919
157152
157354
157378
157164
156956
156770
156483
156410
156538
156714
156883
157040
157149
157183
157052
156814
156598
156471
156502
156674
156889
157089
157182
157060
156885
156660
156496
156492
156531
156798
156933
157063
157098
156981
156951
156797
156554
156390
156412
156635
156792
156988
157053
156923
156789
156559
156432
156476
156489
156671
156838
157037
157084
157006
156834
156614
156359
156298
156365
156630
156810
156979
157054
156931
156738
156606
156487
156493
156472
156629
156743
156948
156996
156881
156747
156625
156400
156316
156383
156607
156756
156909
157032
157006
156830
156639
156345
156224
156251
156516
156674
156908
157075
156977
156788
156638
156346
156188
156267
156471
156620
156898
156973
156880
156700
156625
156430
156291
156310
156545
156676
156880
156946
156879
156732
156503
156232
156128
156119
156396
156633
156892
157045
157004
156813
156705
156455
156219
156202
156372
156530
156764
156912
156812
156712
156606
156397
156284
156215
156439
156583
156783
156935
156889
156752
156578
156333
156229
156200
156417
156503
156706
156866
156817
156720
156591
156329
156151
156008
156093
156269
156619
156985
157035
156785
156565
156359
156200
156155
156283
156493
156735
156902
156798
156700
156558
156351
156239
156133
156281
156462
156761
156920
156863
156772
156641
156323
156146
156141
156299
156477
156691
156833
156849
156739
156562
156346
156145
156026
156186
156349
156583
156812
156825
156709
156571
156361
156181
156178
156370
156493
156658
156807
156791
156694
156540
156323
156190
156196
156266
156385
156658
156925
156843
156640
156486
156220
156127
156142
156432
156620
156794
156926
156830
156639
156467
156245
156222
156265
156336
156487
156645
156802
156830
156703
156524
156370
156215
156132
156251
156485
156721
156909
156904
156697
156521
156419
156335
156267
156360
156514
156682
156852
156815
156656
156557
156457
156348
156227
156372
156542
156733
156883
156798
156640
156576
156426
156321
156194
156349
156472
156614
156798
156849
156728
156596
156404
156126
156085
156259
156464
156613
156774
156820
156671
156564
156314
156103
156040
156139
156373
156632
156833
156853
156670
156502
156309
156086
155939
156181
156404
156665
156972
157024
156836
156622
156441
156283
156190
156394
156587
156787
157016
157100
156926
156686
156593
156307
156001
156064
156218
156269
156359
156371
156293
156123
155911
155782
155699
155773
155882
156048
156243
156393
156472
156395
156359
156102
155957
156113
156308
156576
156762
156799
156685
156489
156318
156126
156088
156221
156425
156627
156817
156807
156698
156509
156332
156096
155984
156072
156261
156442
156758
156811
156838
156665
156475
156182
156069
156126
156284
156474
156743
156826
156761
156623
156434
156255
156135
156198
156392
156665
156889
156874
156859
156710
156506
156246
156084
156148
156335
156525
156767
156833
156822
156730
156614
156372
156155
156235
156436
156554
156719
156838
156796
156683
156522
156298
156206
156324
156521
156666
156876
156897
156836
156689
156571
156346
156147
156269
156504
156673
156845
156925
156947
156673
156397
156061
155937
156107
156470
156668
156853
156836
156794
156595
156386
156119
155974
156084
156321
156578
156713
156738
156752
156603
156420
156111
155949
155993
156217
156366
156596
156716
156679
156465
156283
156008
155852
155905
156115
156429
156677
156841
156829
156557
156340
156053
155874
155967
156210
156401
156703
156793
156747
156612
156365
156104
156001
156051
156248
156418
156595
156721
156772
156606
156423
156139
155921
155868
156017
156236
156498
156668
156687
156520
156413
156158
155978
156026
156101
156299
156678
156734
156711
156523
156347
156129
155914
155926
156119
156324
156579
156673
156666
156484
156309
156096
155993
156018
156101
156252
156493
156590
156546
156372
156287
156104
155965
156075
156172
156286
156466
156566
156547
156412
156315
156170
155992
155976
156120
156239
156390
156505
156548
156454
156323
156119
155922
155961
156054
156224
156491
156612
156562
156471
156276
156117
155954
155947
156059
156220
156485
156615
156588
156442
156287
156059
155805
155797
155963
156134
156398
156647
156693
156550
156315
156087
155898
155886
156031
156175
156305
156423
156480
156398
156221
156031
155882
155947
156038
156159
156269
156436
156527
156426
156283
156118
155922
155944
156058
156275
156414
156498
156584
156472
156317
156121
155864
155851
155958
156063
156279
156587
156652
156449
156308
156085
155777
155767
155900
156101
156397
156605
156681
156492
156344
156162
155849
155745
155869
156098
156345
156507
156608
156470
156306
156166
155907
155845
155974
156096
156404
156649
156764
156565
156350
156192
155846
155734
155970
156193
156426
156564
156634
156482
156260
156101
155859
155835
155947
156080
156270
156432
156587
156457
156231
156006
155770
155749
155887
156097
156319
156518
156669
156540
156283
156085
155835
155772
155898
156096
156385
156583
156710
156549
156325
156137
155922
155903
155994
156163
156349
156514
156624
156452
156257
156064
155813
155818
155969
156163
156307
156547
156628
156546
156439
156300
156055
155915
156002
156155
156359
156512
156652
156590
156445
156282
155980
155877
155939
156084
156255
156516
156662
156588
156429
156234
155947
155879
155920
156130
156384
156625
156703
156577
156344
156137
155900
155849
155944
156121
156418
156540
156641
156649
156488
156301
156025
155930
156061
156214
156386
156524
156674
156650
156434
156325
156030
155981
156117
156336
156526
156731
156905
156871
156656
156523
156210
156047
155969
156058
156233
156444
156526
156335
156132
155878
155666
155660
155635
155770
156015
156316
156424
156336
156145
156018
155957
155894
155926
156091
156293
156579
156772
156825
156647
156444
156149
156031
155986
156167
156468
156712
156808
156774
156520
156297
156032
155998
156091
156306
156444
156661
156845
156821
156633
156466
156221
156114
156081
156272
156446
156632
156767
156727
156576
156562
156319
156171
156163
156330
156501
156764
156929
156840
156595
156381
156231
156255
156304
156482
156705
156926
157034
157029
156877
156646
156404
156254
156314
156429
156572
156825
157062
157049
156890
156769
156454
156307
156389
156520
156650
156899
157144
157218
157027
156811
156566
156490
156500
156646
156766
156911
157142
157179
156986
156930
156630
156479
156571
156700
156871
157057
157250
157211
157003
156825
156531
156357
156384
156695
156926
157214
157369
157319
157160
156913
156604
156454
156467
156676
156929
157162
157366
157316
157061
156866
156687
156561
156661
156750
156970
157210
157367
157300
157133
156951
156781
156650
156602
156665
156876
157090
157315
157476
157304
157114
156892
156687
156697
156911
157138
157302
157454
157509
157339
157099
156832
156659
156770
156949
157167
157378
157583
157618
157423
157213
156977
156856
156888
157024
157230
157401
157658
157735
157583
157486
157197
156974
156990
157169
157354
157489
157604
157583
157461
157458
157337
157196
157220
157328
157433
157604
157821
157880
157730
157539
157244
157040
157086
157359
157522
157732
157991
158029
157928
157742
157462
157258
157222
157419
157617
157802
157939
158040
157948
157688
157490
157287
157210
157340
157582
157944
158253
158229
158048
157816
157608
157433
157385
157501
157655
157853
158108
158246
158109
157904
157640
157408
157479
157570
157828
158015
158244
158327
158123
157951
157743
157595
157489
157614
157786
157948
158266
158413
158220
157943
157753
157677
157628
157763
157964
158148
158354
158401
158200
158044
157868
157755
157696
157748
157935
158109
158387
158541
158485
158270
157975
157807
157698
157805
158030
158159
158342
158509
158466
158277
158038
157921
157909
157941
158132
158284
158611
158718
158615
158390
158210
158007
157919
158029
158219
158325
158579
158715
158718
158459
158289
158062
157940
158011
158198
158375
158721
158801
158705
158524
158275
158094
158004
158096
158325
158472
158746
158804
158660
158504
158346
158276
158227
158235
158362
158469
158691
158841
158761
158582
158321
158143
158069
158129
158342
158516
158730
158860
158800
158625
158446
158216
158165
158125
158340
158418
158787
158903
158799
158504
158268
158063
158195
158441
158563
158613
158863
158937
158882
158658
158480
158273
158124
158197
158473
158661
158862
159037
159027
158835
158698
158487
158447
158472
158624
158673
158952
159058
158961
158894
158728
158487
158405
158500
158748
158817
158916
159054
158996
158799
158669
158459
158328
158388
158457
158593
158986
159210
159245
159077
158764
158531
158393
158390
158554
158737
158930
159069
159051
158930
158848
158625
158534
158551
158639
158776
158998
159051
159006
158846
158707
158530
158363
158388
158521
158738
159146
159280
159253
159073
158808
158529
158438
158504
158655
158804
159104
159227
159261
159109
158978
158705
158509
158406
158488
158573
158751
158833
158735
158477
158238
158023
157891
157966
158154
158235
158464
158564
158607
158527
158296
158082
157969
158110
158262
158424
158674
158810
158747
158549
158420
158326
158313
158232
158285
158416
158660
158791
158783
158633
158333
158218
158154
158152
158276
158388
158564
158766
158777
158621
158439
158216
158025
158071
158215
158361
158655
158847
158806
158587
158290
158070
157900
157874
158008
158199
158524
158744
158822
158600
158364
158173
158016
158005
158097
158227
158469
158684
158654
158519
158362
158242
158067
158084
158150
158238
158461
158672
158748
158588
158401
158168
157917
157836
158024
158268
158558
158725
158723
158543
158312
158152
157936
157910
157969
158109
158359
158656
158737
158548
158326
158079
157854
157823
157948
158006
158232
158422
158485
158310
158118
157954
157746
157697
157792
157874
158022
158180
158257
158239
158075
157895
157619
157502
157683
157839
158056
158170
158187
158019
157910
157868
157646
157481
157552
157740
157913
158104
158127
157984
157733
157628
157387
157279
157431
157753
158125
158193
158282
158142
157864
157771
157546
157413
157522
157653
157839
157983
157983
157942
157800
157658
157470
157349
157480
157568
157776
158004
158078
157998
157790
157606
157385
157198
157289
157452
157761
158152
158199
158102
157782
157509
157244
157310
157549
157628
157748
157890
157920
157836
157662
157629
157549
157465
157416
157511
157686
157939
158035
157935
157658
157469
157253
157216
157279
157506
157710
157949
158051
157950
157709
157540
157268
157081
157108
157353
157787
157988
157994
157848
157551
157394
157246
157237
157456
157623
157654
157794
157830
157839
157722
157561
157354
157256
157259
157394
157594
157759
157888
157800
157505
157364
157217
157166
157226
157333
157495
157721
157765
157636
157358
157336
157255
157192
157178
157292
157458
157675
157724
157663
157429
157351
157166
157046
157010
157086
157291
157579
157763
157834
157539
157331
157036
156887
156901
157087
157396
157583
157680
157643
157444
157297
157033
156884
156893
157064
157249
157464
157617
157641
157418
157214
156996
156916
156946
157093
157211
157453
157518
157436
157205
157092
156953
156980
156912
156978
157156
157413
157522
157488
157301
157190
156989
156903
156871
156997
157147
157351
157517
157519
157307
157138
156843
156617
156588
156790
157131
157511
157641
157604
157330
157161
156916
156639
156586
156700
156900
157084
157236
157201
157142
156975
156732
156573
156559
156721
156967
157182
157251
157242
157014
156887
156749
156587
156614
156764
156884
157118
157268
157233
157053
156938
156799
156625
156629
156682
156818
157076
157293
157302
157110
156906
156683
156505
156468
156626
156850
157184
157374
157300
157098
156942
156688
156453
156426
156610
156820
157086
157342
157233
157040
156883
156637
156361
156338
156458
156774
157165
157334
157276
157066
156906
156668
156437
156411
156528
156682
156875
157122
157138
157055
156962
156706
156523
156496
156587
156741
156880
157034
157045
156917
156811
156644
156504
156439
156584
156816
157117
157255
157225
157084
157012
156800
156608
156611
156745
156821
156985
157132
157109
156883
156699
156508
156253
156077
156054
156187
156412
156628
156635
156446
156392
156277
156023
155930
156096
156404
156701
156946
157023
156866
156688
156517
156354
156298
156397
156574
156769
157061
157165
156992
156799
156590
156371
156278
156437
156625
156800
157027
157116
156953
156840
156682
156476
156332
156412
156625
156841
157007
157092
156947
156770
156590
156360
156344
156477
156710
156864
157058
157085
156968
156769
156594
156429
156374
156471
156710
156834
157019
157050
156942
156864
156706
156536
156402
156471
156644
156794
156961
157112
157045
157041
156815
156514
156373
156414
156635
156875
157197
157263
157124
156944
156780
156558
156472
156507
156678
156864
157073
157237
157179
157023
156749
156487
156341
156386
156658
156924
157245
157282
157104
156906
156728
156464
156321
156414
156598
156763
156921
157015
157018
156992
156831
156534
156375
156392
156614
156776
156971
157138
156967
156804
156695
156429
156423
156489
156612
156691
156877
157014
156987
156885
156785
156496
156325
156311
156509
156712
156975
157107
157061
156913
156737
156497
156391
156383
156636
156727
156984
157148
157126
156991
156715
156455
156405
156548
156722
156851
157053
157153
157085
156918
156699
156431
156274
156248
156534
156789
157193
157334
157202
156987
156808
156556
156395
156356
156571
156677
156937
157117
157103
157020
156859
156520
156381
156359
156546
156719
156997
157140
157047
156902
156816
156602
156343
156299
156586
156744
157040
157175
157096
156961
156800
156498
156350
156303
156499
156699
156938
157159
157208
156983
156842
156635
156422
156319
156475
156641
156901
157117
157221
157007
156785
156582
156502
156389
156488
156619
156857
157075
157138
157050
156872
156556
156338
156293
156553
156742
156985
157103
156943
156876
156798
156528
156352
156291
156546
156683
156870
157051
156982
156896
156773
156559
156366
156315
156466
156647
156858
157023
156977
156883
156727
156423
156225
156224
156445
156622
156908
157055
156952
156796
156703
156561
156388
156344
156486
156658
156843
156934
156875
156792
156759
156640
156362
156307
156431
156578
156789
157024
157036
156887
156695
156483
156233
156248
156457
156560
156713
156904
157000
156909
156693
156413
156217
156303
156534
156631
156867
157018
157008
156874
156650
156455
156271
156228
156457
156682
156883
157027
156991
156865
156698
156512
156335
156236
156342
156491
156735
156954
157004
156900
156757
156485
156233
156117
156223
156444
156737
156952
156991
156966
156734
156542
156332
156210
156319
156439
156695
156983
157045
156904
156714
156476
156277
156203
156364
156512
156677
156942
156978
156899
156763
156490
156181
156075
156255
156485
156713
156970
157033
156991
156843
156553
156253
156101
156257
156490
156712
156878
156980
156905
156767
156575
156323
156169
156281
156473
156709
156903
156944
156915
156757
156533
156269
156119
156278
156448
156669
156916
157010
156942
156728
156520
156284
156158
156285
156534
156737
156922
157055
156903
156713
156543
156361
156210
156364
156482
156673
156965
157064
157110
156931
156727
156507
156302
156422
156619
156701
156821
156877
156991
156906
156721
156477
156324
156379
156551
156736
156951
157070
156992
156785
156546
156331
156162
156306
156535
156755
157016
157014
156884
156736
156608
156387
156265
156388
156530
156674
156892
157051
156977
156711
156529
156424
156254
156418
156562
156736
156988
157066
156995
156783
156637
156521
156470
156584
156854
156992
157127
157167
157106
156909
156715
156448
156211
156233
156337
156431
156646
156624
156635
156502
156232
156017
155832
155917
156165
156490
156724
156796
156791
156695
156557
156336
156204
156253
156451
156653
156939
156999
157039
156864
156719
156388
156203
156233
156418
156624
156946
157036
157033
156839
156690
156368
156139
156238
156435
156662
157011
157057
157105
156862
156676
156418
156269
156243
156376
156583
156933
157135
157157
156929
156705
156432
156319
156351
156509
156751
156997
157034
157088
156893
156706
156442
156322
156368
156543
156685
156873
156945
156983
156865
156765
156536
156313
156315
156503
156701
157042
157170
157192
156967
156760
156454
156252
156314
156573
156795
157188
157350
157264
157062
156851
156553
156340
156351
156567
156731
157021
157155
157169
156930
156757
156515
156326
156358
156528
156765
156983
157063
157086
156889
156683
156465
156266
156296
156390
156512
156838
156988
156921
156763
156595
156404
156325
156338
156468
156602
156883
157037
157073
156872
156658
156395
156236
156260
156501
156600
156790
156935
156949
156897
156796
156526
156266
156316
156445
156560
156766
156887
157016
156944
156805
156478
156298
156350
156410
156568
156793
156921
156953
156884
156737
156497
156277
156269
156386
156469
156676
156844
156942
156818
156648
156396
156199
156243
156336
156545
156724
156910
157021
156893
156661
156382
156128
156133
156300
156408
156635
156934
156958
156811
156683
156463
156164
156152
156297
156394
156646
156826
156864
156726
156600
156404
156207
156199
156318
156422
156683
156901
156948
156782
156579
156289
156015
156049
156221
156409
156649
156806
156898
156780
156625
156319
156062
156106
156191
156437
156653
156798
156834
156694
156571
156406
156165
156117
156280
156413
156568
156723
156813
156755
156643
156436
156181
156162
156278
156422
156644
156768
156813
156668
156554
156403
156101
156073
156266
156423
156681
156818
156888
156728
156536
156349
156055
156049
156293
156507
156674
156781
156914
156830
156611
156424
156162
156074
156228
156446
156598
156784
156867
156756
156547
156372
156178
156248
156368
156433
156603
156747
156886
156767
156581
156331
156039
156000
156223
156485
156700
156826
156932
156755
156517
156336
156112
156075
156261
156344
156465
156700
156839
156759
156687
156486
156222
156098
156185
156348
156570
156753
156818
156660
156456
156326
156124
156121
156419
156483
156580
156759
156850
156771
156512
156312
156104
156064
156149
156444
156666
156795
156858
156751
156561
156366
156105
156054
156137
156310
156439
156633
156741
156725
156566
156431
156141
156040
156155
156383
156553
156624
156733
156697
156561
156437
156178
156123
156229
156393
156475
156668
156770
156742
156675
156444
156110
156096
156137
156348
156493
156670
156793
156718
156505
156349
156055
156034
156149
156333
156603
156753
156812
156742
156538
156305
156017
155996
156120
156278
156503
156662
156776
156735
156536
156293
156074
156025
156057
156262
156416
156615
156718
156660
156473
156348
156106
155974
155993
156186
156330
156497
156630
156850
156616
156296
155980
155872
155962
156200
156372
156564
156645
156703
156508
156362
156165
156174
156167
156268
156378
156603
156810
156800
156605
156547
156268
156105
156141
156388
156580
156698
156713
156622
156362
156124
155808
155617
155567
155728
155937
156194
156308
156281
156073
155849
155619
155575
155782
156097
156284
156462
156640
156688
156466
156270
156046
155937
156030
156197
156314
156515
156648
156625
156476
156340
156090
155902
155935
156184
156411
156597
156726
156660
156455
156281
156030
155970
156038
156202
156328
156508
156712
156723
156568
156499
156308
156054
156036
156135
156333
156481
156680
156640
156529
156387
156163
156014
156015
156173
156390
156595
156820
156829
156642
156455
156215
155974
156009
156149
156422
156718
156869
156835
156738
156538
156244
156049
156045
156195
156406
156489
156727
156825
156724
156589
156335
156238
156213
156290
156370
156534
156779
156814
156746
156532
156242
156038
156095
156302
156467
156656
156869
156832
156680
156522
156284
156125
156105
156175
156380
156560
156739
156763
156630
156388
156121
156019
156001
156122
156314
156476
156708
156777
156638
156507
156207
155947
155891
156023
156208
156462
156729
156758
156664
156468
156191
156025
156034
156155
156324
156499
156645
156703
156555
156389
156236
156127
155990
156136
156360
156466
156690
156794
156640
156492
156232
156038
155953
156114
156298
156484
156746
156815
156646
156451
156214
156027
155993
156158
156298
156414
156604
156648
156579
156453
156256
156018
155997
156112
156248
156368
156563
156674
156606
156562
156310
156008
155930
156065
156268
156420
156655
156726
156651
156423
156085
155913
155993
156218
156394
156433
156709
156783
156656
156450
156243
156058
155904
156050
156330
156547
156724
156794
156675
156484
156288
156084
156060
156169
156356
156459
156720
156806
156671
156504
156351
156137
156025
156132
156276
156372
156635
156834
156781
156571
156315
156125
156016
156079
156279
156428
156646
156758
156712
156581
156297
156015
155900
155947
156142
156405
156732
156883
156753
156501
156225
156030
155947
156038
156286
156441
156696
156825
156710
156488
156267
156030
155945
156066
156279
156490
156693
156738
156662
156451
156235
156058
155980
156077
156319
156460
156752
156895
156784
156544
156299
156051
155971
156037
156300
156478
156729
156786
156675
156509
156270
156088
156071
156156
156291
156417
156663
156816
156804
156693
156469
156114
156004
156067
156248
156413
156672
156779
156780
156542
156341
156101
156027
156064
156213
156370
156645
156735
156736
156503
156250
156031
155948
156027
156194
156271
156566
156701
156665
156465
156279
156125
156014
156015
156233
156338
156580
156767
156706
156485
156288
156004
155851
155975
156207
156392
156673
156796
156686
156422
156211
156026
155990
156112
156258
156315
156592
156712
156665
156435
156257
156088
156017
156068
156172
156313
156617
156735
156619
156478
156297
156073
155929
156026
156226
156338
156615
156764
156709
156445
156235
156072
155963
156044
156205
156307
156538
156645
156637
156469
156235
155996
155813
155844
156017
156170
156530
156807
156743
156485
156201
156049
155894
155857
156010
156060
156363
156629
156627
156510
156272
156017
155898
155869
156011
156233
156462
156661
156561
156365
156140
155937
155862
155890
156107
156324
156612
156839
156822
156634
156400
156221
156083
156097
156220
156324
156500
156684
156659
156366
156138
155903
155675
155698
155766
155850
156097
156263
156227
156075
155895
155682
155507
155490
155621
155858
156184
156399
156439
156289
156095
155930
155853
155830
155917
156070
156410
156669
156645
156475
156196
155914
155739
155763
155991
156294
156433
156695
156689
156505
156362
156176
155948
155793
155930
156082
156364
156588
156614
156498
156260
156094
155862
155825
155992
156135
156401
156581
156603
156445
156217
156050
155795
155765
155935
156035
156317
156528
156487
156329
156142
156037
155899
155897
156075
156123
156279
156521
156573
156377
156227
156104
155850
155820
155989
156143
156442
156690
156771
156563
156307
156166
155953
155943
156072
156190
156442
156692
156740
156521
156217
156002
155911
155942
155998
156208
156429
156666
156692
156525
156245
156022
155841
155802
155922
156012
156225
156499
156599
156411
156200
156000
155747
155632
155796
156006
156191
156387
156400
156313
156178
156068
155902
155772
155849
156004
156210
156375
156394
156335
156153
156066
155905
155754
155763
155908
156133
156438
156455
156320
156152
155967
155708
155625
155693
155964
156225
156422
156456
156333
156066
155943
155815
155778
155862
156022
156256
156455
156522
156400
156142
155904
155638
155572
155795
156027
156184
156485
156426
156386
156238
156089
155877
155668
155709
155832
156100
156380
156439
156371
156114
156021
155798
155700
155754
155987
156226
156381
156431
156365
156104
155961
155750
155658
155779
155966
156120
156314
156373
156280
156042
155956
155764
155703
155708
155837
156005
156295
156427
156407
156167
156020
155779
155671
155619
155807
156027
156275
156448
156384
156136
156027
155784
155643
155643
155778
155994
156188
156337
156409
156145
155969
155766
155750
155781
155869
156061
156370
156521
156389
156083
155987
155740
155651
155681
155805
156004
156249
156364
156361
156113
156004
155750
155619
155644
155788
155994
156260
156429
156411
156113
155969
155716
155620
155591
155737
155950
156178
156288
156227
156037
155972
155719
155583
155713
155816
156035
156262
156349
156337
156167
155965
155696
155624
155576
155704
156034
156329
156414
156359
156166
156065
155848
155691
155696
155772
155924
156188
156409
156481
156274
156017
155712
155478
155654
155903
156075
156214
156376
156418
156270
156158
155957
155788
155699
155766
156011
156239
156385
156394
156170
156074
155793
155540
155661
155847
156035
156248
156425
156462
156307
156141
155859
155627
155608
155692
155891
156215
156385
156364
156184
156138
155937
155673
155638
155761
155920
156162
156415
156349
156155
156030
155845
155642
155592
155734
155925
156164
156390
156372
156193
156031
155832
155623
155701
155831
155935
156179
156373
156354
156140
155985
155815
155658
155675
155746
155924
156108
156277
156283
156193
156065
155827
155657
155686
155794
155982
156159
156360
156381
156162
155998
155882
155693
155611
155657
155910
156188
156346
156377
156200
156000
155866
155662
155709
155790
155891
156044
156250
156372
156122
155990
155811
155592
155528
155681
155864
156056
156348
156353
156185
156029
155853
155673
155561
155696
155897
156047
156223
156180
156015
155943
155761
155540
155496
155628
155833
156011
156236
156260
156054
155890
155707
155509
155445
155479
155696
155958
156240
156306
156106
155877
155708
155480
155386
155478
155754
156038
156222
156220
156047
155968
155831
155582
155519
155654
155861
156113
156305
156297
156042
155815
155569
155328
155201
155197
155333
155425
155614
155730
155587
155425
155216
154970
154923
155056
155326
155579
155816
155891
155707
155599
155497
155247
155188
155239
155519
155786
156052
156130
155954
155813
155613
155345
155193
155265
155554
155792
155913
155994
155795
155683
155598
155430
155322
155345
155586
155809
156008
156084
155958
155724
155515
155309
155204
155289
155554
155783
156039
156137
155871
155708
155568
155357
155240
155328
155624
155868
155998
156016
155894
155668
155487
155287
155236
155295
155569
155713
155971
156083
155985
155797
155608
155325
155251
155341
155597
155750
155967
156049
155947
155766
155607
155423
155333
155335
155539
155708
155999
156122
156095
155841
155653
155436
155354
155377
155575
155777
156005
156058
155964
155825
155687
155380
155202
155271
155459
155647
155898
155930
155795
155598
155498
155248
155187
155261
155408
155588
155784
155907
155839
155679
155540
155299
155147
155149
155289
155449
155739
155873
155870
155667
155544
155331
155173
155113
155348
155570
155797
155893
155854
155644
155540
155282
155105
155119
155319
155556
155809
155928
155891
155702
155507
155290
155122
155087
155250
155463
155758
155920
155863
155694
155482
155244
155028
154999
155272
155516
155723
155877
155853
155715
155576
155339
155188
155114
155339
155523
155764
155800
155680
155512
155467
155271
155098
155166
155359
155474
155633
155811
155788
155698
155540
155222
155018
154984
155159
155360
155589
155850
155830
155679
155557
155229
155040
155018
155165
155369
155637
155739
155684
155611
155511
155223
155026
155012
155195
155413
155560
155710
155779
155624
155409
155140
154935
154900
155125
155312
155577
155704
155637
155596
155447
155219
155039
155000
155098
155258
155465
155680
155752
155621
155400
155240
154972
154906
155116
155361
155627
155772
155680
155570
155338
155103
154892
154875
155129
155285
155450
155536
155512
155525
155411
155267
155058
154937
155072
155243
155442
155619
155565
155462
155256
155088
154921
154900
155125
155327
155508
155633
155666
155563
155400
155150
154892
154860
155068
155237
155448
155627
155665
155457
155304
155081
154925
154872
155056
155231
155292
155466
155545
155496
155367
155208
155011
154906
155065
155203
155326
155457
155429
155370
155277
155177
154939
154822
155026
155206
155416
155597
155570
155399
155235
155073
154884
154817
154975
155165
155322
155506
155515
155339
155205
155016
154844
154733
154972
155119
155321
155571
155532
155437
155268
155030
154836
154714
154799
154941
155136
155470
155585
155478
155268
155058
154865
154777
154860
155008
155200
155364
155335
155231
155118
155012
154850
154780
154903
155040
155186
155383
155413
155289
155124
155012
154772
154672
154783
155035
155214
155332
155315
155194
155097
154961
154821
154702
154789
155023
155215
155369
155378
155271
155111
154930
154677
154578
154692
154896
155127
155354
155324
155244
155058
154867
154673
154592
154655
154807
154997
155191
155266
155250
155037
154875
154632
154488
154612
154814
154966
155203
155294
155235
155003
154790
154522
154370
154611
154733
154971
155201
155295
155183
154969
154746
154538
154488
154553
154735
154890
155198
155263
155231
155075
154869
154671
154586
154734
154978
155215
155387
155412
155279
154962
154709
154445
154357
154490
154662
154779
154883
154807
154689
154463
154332
154153
154052
154138
154340
154537
154826
154964
154980
154772
154574
154369
154246
154355
154619
154899
155139
155220
155161
154921
154715
154430
154353
154517
154788
154946
155084
155117
155102
154931
154784
154604
154527
154632
154798
154873
155101
155130
155075
154954
154754
154607
154568
154617
154775
154911
155143
155243
155222
154990
154802
154566
154413
154518
154705
154883
155062
155169
155190
154999
154824
154628
154528
154575
154795
154929
155114
155224
155195
154984
154803
154608
154482
154674
154834
154994
155177
155155
155128
155010
154860
154716
154629
154639
154811
155010
155170
155272
155281
155233
155048
154823
154681
154750
154918
154970
155080
155145
155224
155175
155026
154807
154588
154608
154793
154966
155168
155272
155227
154961
154761
154558
154415
154519
154673
154916
155186
155304
155254
155077
154896
154638
154427
154527
154642
154808
155052
155203
155160
154992
154868
154560
154373
154434
154655
154860
155038
155088
155069
154989
154862
154600
154416
154474
154565
154703
154892
155101
155169
154952
154836
154680
154353
154418
154583
154758
154983
155129
155144
155006
154825
154587
154392
154424
154646
154788
154988
155136
155202
155075
154909
154648
154397
154456
154613
154781
154981
155124
155112
154941
154805
154571
154394
154438
154580
154768
155049
155168
155114
154906
154783
154491
154414
154488
154574
154708
154944
155193
155231
155048
154850
154628
154368
154399
154553
154714
154841
155030
155129
154983
154784
154547
154338
154366
154595
154749
154851
154928
155083
154981
154779
154615
154434
154413
154547
154685
154846
155034
155099
154942
154775
154588
154373
154354
154488
154630
154849
154988
155010
154805
154662
154485
154322
154235
154451
154592
154800
154983
155120
154978
154707
154480
154253
154250
154422
154576
154802
154937
155031
154850
154679
154472
154327
154281
154327
154467
154657
154843
154930
154847
154713
154599
154351
154290
154452
154594
154728
154861
154918
154788
154638
154418
154255
154253
154524
154594
154735
154851
154955
154787
154603
154424
154168
154067
154262
154582
154872
154974
155036
154898
154680
154498
154269
154199
154296
154464
154656
154795
154888
154772
154594
154465
154291
154241
154344
154518
154669
154797
154916
154761
154502
154402
154233
154312
154403
154548
154696
154847
154906
154762
154544
154362
154164
154194
154367
154505
154666
154835
154874
154752
154526
154460
154253
154156
154287
154435
154589
154838
154869
154722
154506
154380
154170
154114
154230
154427
154553
154719
154920
154834
154644
154438
154146
154175
154263
154474
154671
154824
154882
154790
154526
154394
154175
154184
154347
154475
154624
154803
154953
154824
154630
154443
154137
154072
154248
154463
154649
154745
154757
154658
154499
154480
154369
154195
154168
154338
154592
154793
154901
154889
154669
154544
154312
154188
154265
154438
154559
154740
154869
154761
154632
154470
154202
154124
154110
154299
154533
154699
154800
154743
154548
154375
154215
154137
154174
154343
154537
154695
154807
154759
154619
154368
154069
154048
154189
154389
154549
154693
154784
154704
154426
154356
154158
154049
154083
154272
154544
154757
154866
154848
154630
154500
154193
154002
154151
154412
154635
154907
155053
155008
154689
154470
154211
154097
154055
154145
154287
154416
154477
154351
154123
153951
153644
153614
153713
153874
154023
154282
154494
154501
154336
154160
153882
153823
153913
154109
154358
154628
154786
154731
154565
154362
154144
154097
154119
154283
154519
154729
154854
154806
154579
154420
154183
154068
154022
154163
154304
154531
154785
154897
154736
154547
154206
154069
154081
154248
154467
154670
154846
154831
154672
154519
154240
154138
154239
154294
154401
154609
154877
154954
154693
154526
154331
154218
154238
154362
154490
154706
154946
154894
154738
154599
154322
154151
154229
154369
154544
154825
155121
155038
154849
154719
154518
154431
154394
154462
154531
154758
154930
154959
154909
154708
154496
154416
154458
154622
154821
154927
155070
155015
154870
154720
154505
154400
154399
154582
154691
154843
155007
154977
154781
154583
154405
154331
154460
154584
154695
154872
155062
155052
154896
154703
154422
154228
154158
154429
154622
154823
155115
155093
154950
154779
154452
154242
154216
154341
154624
154880
155048
154982
154910
154747
154480
154330
154290
154473
154678
154794
155016
155072
154916
154712
154489
154364
154319
154453
154592
154747
154873
154929
154875
154754
154567
154510
154454
154553
154722
154880
155017
154972
154930
154847
154655
154530
154435
154532
154713
154900
155119
155106
154950
154893
154671
154563
154471
154605
154801
154883
155133
155236
155126
154944
154694
154573
154514
154681
154815
155007
155266
155317
155172
154976
154712
154486
154419
154673
154857
155063
155392
155442
155236
155020
154776
154660
154627
154746
154925
155069
155347
155422
155300
155033
154807
154610
154628
154862
155038
155114
155307
155373
155240
155100
154915
154865
154822
154906
155138
155225
155411
155495
155354
155173
155020
154827
154703
154803
155003
155210
155371
155445
155424
155288
155071
154832
154787
154926
155200
155342
155509
155578
155463
155288
155043
154821
154777
154864
155083
155245
155452
155544
155478
155302
155145
154926
154792
154885
155168
155420
155631
155718
155565
155334
155111
154928
154836
154931
155237
155483
155699
155749
155701
155484
155268
155074
154988
155036
155225
155419
155712
155774
155705
155512
155268
155093
155057
155155
155335
155434
155740
155839
155754
155568
155366
155180
155096
155147
155407
155551
155696
155779
155904
155731
155495
155279
155147
155170
155305
155490
155795
156004
155976
155751
155506
155312
155265
155318
155457
155634
155897
155978
155900
155722
155576
155409
155320
155370
155596
155661
155892
156027
155985
155804
155690
155457
155371
155409
155612
155777
155990
156131
156116
155939
155721
155515
155451
155495
155662
155755
155963
156096
156067
155891
155793
155594
155474
155480
155672
155837
156170
156272
156173
156045
155887
155635
155535
155585
155703
155854
156142
156293
156288
155984
155757
155628
155743
155776
155823
155963
156215
156351
156334
156146
155918
155717
155652
155691
155840
155943
156259
156338
156323
156220
156018
155828
155752
155740
155911
155988
156246
156389
156354
156149
155917
155708
155645
155737
156017
156134
156354
156455
156365
156159
155971
155790
155684
155786
155992
156049
156254
156412
156383
156216
156030
155887
155802
155782
155895
155990
156260
156412
156378
156261
156125
155998
155951
155937
156059
156176
156471
156641
156623
156456
156233
156029
155842
155725
155872
155986
156155
156334
156243
155979
155732
155534
155373
155365
155593
155750
155949
156119
156122
156053
155976
155751
155599
155720
155976
156261
156470
156540
156541
156351
156183
156005
155924
155945
156067
156100
156289
156455
156493
156393
156245
156124
155906
155929
156082
156184
156433
156566
156620
156524
156312
156108
155919
155885
156017
156122
156369
156516
156532
156440
156294
156175
156002
155944
156114
156273
156477
156753
156749
156567
156328
156134
155976
155935
156086
156216
156404
156588
156747
156654
156420
156270
156079
155989
156165
156340
156537
156721
156710
156586
156449
156296
156135
156089
156197
156354
156607
156853
156815
156662
156464
156248
156099
156073
156201
156340
156553
156734
156858
156780
156525
156337
156143
156101
156248
156302
156442
156674
156830
156764
156481
156298
156085
156023
156158
156296
156534
156780
156751
156525
156329
156175
156025
155992
156202
156420
156628
156737
156753
156565
156312
156095
155895
155870
156044
156223
156458
156663
156696
156533
156315
156213
156075
155997
156184
156303
156455
156668
156721
156565
156307
156154
155979
155897
156061
156267
156426
156675
156774
156637
156466
156287
156112
156057
156126
156179
156315
156508
156661
156705
156520
156263
156037
155934
156053
156233
156423
156681
156820
156658
156401
156291
156130
156011
156131
156311
156531
156689
156746
156644
156393
156212
155992
155872
155952
156175
156407
156728
156830
156729
156505
156347
156042
155947
156037
156272
156522
156670
156835
156751
156485
156274
156064
156071
156140
156329
156562
156692
156764
156670
156415
156246
156108
156054
156100
156304
156540
156773
156790
156713
156453
156309
156065
156033
156135
156307
156475
156682
156743
156661
156417
156281
156055
156055
156176
156292
156474
156674
156741
156694
156497
156361
156205
156081
156111
156255
156467
156738
156821
156727
156464
156323
156122
156047
156108
156258
156397
156569
156686
156654
156411
156268
156145
156097
156042
156170
156374
156589
156679
156696
156475
156351
156159
156023
156051
156275
156475
156608
156704
156643
156382
156287
156150
156017
156104
156351
156440
156608
156690
156618
156419
156362
156167
156013
156106
156229
156418
156668
156695
156696
156445
156339
156026
155998
156097
156263
156487
156658
156676
156611
156455
156283
156145
156029
156090
156249
156406
156596
156766
156663
156499
156401
156208
156024
156001
156151
156299
156557
156727
156722
156515
156333
156088
155974
156008
156079
156321
156662
156849
156708
156534
156381
156141
155979
155956
156090
156271
156453
156603
156612
156509
156391
156113
155946
156021
156168
156275
156512
156616
156568
156425
156352
156169
156055
156067
156131
156341
156561
156638
156557
156338
156195
156082
155970
155982
156086
156333
156605
156693
156643
156430
156307
156063
155913
155930
156118
156384
156507
156633
156589
156381
156302
156057
155841
155811
155948
156089
156347
156598
156656
156434
156300
156118
155914
155864
155953
156031
156216
156396
156417
156396
156328
156039
155868
155936
155974
156090
156298
156469
156503
156373
156179
156014
155803
155806
155911
156097
156354
156552
156606
156375
156246
156013
155804
155885
156116
156353
156521
156690
156675
156406
156267
156128
155835
155706
155741
155834
155971
156110
156072
155899
155701
155510
155297
155346
155466
155744
156075
156231
156266
156052
155898
155755
155671
155695
155847
156034
156188
156284
156444
156349
156296
156135
155861
155832
155886
156015
156184
156464
156555
156356
156237
156057
155850
155777
155841
156022
156202
156399
156488
156289
156214
156033
155839
155769
155837
155988
156144
156377
156393
156194
156073
156029
155868
155740
155862
156064
156223
156402
156414
156300
156184
155983
155824
155755
155858
156060
156239
156431
156438
156294
156156
155963
155779
155729
155875
156069
156252
156491
156561
156361
156223
156062
155854
155755
155840
156038
156257
156530
156565
156336
156201
155984
155840
155792
155896
156080
156244
156391
156493
156360
156309
156135
155858
155742
155713
155916
156153
156366
156401
156309
156179
155908
155701
155673
155745
155929
156100
156289
156330
156255
156106
155891
155613
155570
155639
155930
156169
156442
156429
156236
156026
155824
155609
155544
155630
155833
155913
156136
156193
156219
156037
155851
155632
155581
155618
155878
156053
156180
156240
156144
155980
155827
155644
155561
155621
155803
155991
156230
156289
156119
155880
155706
155541
155584
155678
155923
156084
156259
156288
156186
155966
155770
155654
155599
155598
155774
155949
156130
156162
156118
156012
155885
155546
155454
155557
155894
156083
156193
156205
156129
155970
155869
155673
155571
155478
155675
155817
156028
156122
156252
156206
156008
155738
155570
155554
155745
155906
156150
156250
156140
155977
155795
155594
155442
155468
155695
155849
156059
156088
156042
155917
155868
155712
155554
155551
155770
155925
156123
156163
156068
155933
155804
155551
155436
155465
155728
155943
156117
156191
156111
156001
155873
155601
155462
155465
155684
155870
156104
156204
156095
155937
155832
155638
155535
155480
155662
155837
156043
156164
156091
155874
155688
155487
155354
155401
155526
155716
155998
156270
156269
155988
155796
155609
155497
155457
155611
155803
156043
156131
156062
155944
155797
155530
155430
155495
155654
155787
155967
156067
156006
155912
155873
155635
155445
155505
155710
155859
156030
156130
156038
155841
155662
155431
155319
155354
155701
155916
156079
156223
156146
155969
155829
155555
155331
155296
155540
155852
156075
156257
156149
155974
155849
155656
155442
155397
155566
155670
155899
156117
156053
156010
155873
155549
155459
155445
155589
155825
155994
156132
156105
155966
155749
155569
155346
155313
155612
155813
155957
156097
156081
155926
155778
155632
155434
155417
155570
155706
155821
156003
155996
156000
155880
155695
155490
155446
155564
155745
155933
156142
156123
156003
155812
155593
155498
155479
155701
155844
156011
156114
156073
156009
155855
155658
155418
155339
155556
155799
156104
156188
156147
156006
155839
155623
155431
155368
155604
155926
156099
156239
156210
156014
155835
155565
155430
155440
155633
155881
156023
156182
156194
156056
155847
155653
155495
155399
155638
155781
155984
156176
156200
156054
155809
155630
155456
155414
155586
155783
155906
156072
156058
156003
155913
155773
155553
155403
155512
155691
155857
156043
156186
156020
155862
155641
155473
155392
155580
155689
155851
156095
156137
156078
155940
155750
155588
155522
155622
155828
156017
156250
156280
156170
156011
155824
155611
155498
155527
155605
155699
155883
155913
155725
155490
155262
155049
154941
155056
155251
155434
155642
155715
155728
155629
155509
155391
155200
155335
155568
155800
155993
156067
155981
155808
155658
155469
155281
155416
155660
155844
156087
156105
156042
155857
155615
155338
155188
155321
155540
155755
155943
155980
155929
155756
155598
155420
155295
155391
155613
155782
156012
156114
156019
155793
155599
155399
155291
155355
155541
155774
155974
155991
155921
155742
155594
155407
155331
155434
155575
155723
155897
155955
155926
155747
155604
155479
155400
155411
155649
155894
156049
155984
155916
155672
155518
155358
155328
155495
155701
155899
156070
156016
156015
155785
155573
155431
155390
155491
155697
155814
155976
155967
155901
155683
155505
155334
155419
155442
155587
155722
155866
155890
155908
155772
155569
155326
155251
155306
155474
155605
155730
155754
155649
155603
155564
155406
155201
155237
155412
155569
155809
155805
155741
155553
155418
155251
155148
155202
155295
155340
155599
155734
155759
155654
155490
155247
155115
155149
155319
155488
155666
155693
155670
155495
155409
155177
155075
155145
155324
155493
155674
155699
155657
155520
155356
155128
154993
155075
155187
155317
155560
155755
155775
155571
155346
155034
154966
155120
155350
155497
155722
155745
155710
155541
155422
155219
155172
155159
155304
155432
155585
155666
155752
155588
155403
155181
155002
155056
155236
155373
155581
155678
155779
155635
155421
155209
154982
155001
155203
155439
155654
155723
155748
155582
155419
155125
154923
155025
155257
155449
155622
155669
155725
155544
155368
155183
155006
155184
155296
155399
155603
155686
155663
155534
155319
155246
155157
155150
155227
155364
155599
155728
155761
155549
155317
155135
154901
154878
155031
155318
155701
155788
155764
155592
155403
155160
154937
154938
155097
155291
155557
155726
155755
155490
155334
155110
154903
154958
155111
155275
155475
155620
155636
155482
155265
155073
154846
154981
155175
155321
155488
155559
155557
155396
155266
155121
154915
154903
155042
155224
155454
155570
155538
155390
155219
155038
154846
154872
155049
155192
155432
155611
155612
155388
155228
155016
154799
154813
154867
155135
155408
155492
155459
155265
155137
155007
154846
154889
155024
155169
155378
155497
155559
155401
155112
154859
154713
154750
154940
155146
155295
155482
155504
155344
155186
154969
154682
154663
154839
155055
155309
155464
155558
155361
155182
155058
154887
154777
154883
155008
155174
155300
155394
155336
155250
155009
154806
154819
154949
155074
155293
155415
155551
155400
155165
154953
154716
154703
154895
155032
155211
155374
155461
155276
155095
154948
154774
154809
154927
155089
155256
155371
155448
155351
155186
154950
154711
154623
154710
154887
155131
155354
155421
155341
155132
154951
154746
154695
154820
154976
155133
155248
155405
155280
155036
154819
154609
154594
154723
154897
155075
155227
155259
155163
155065
154930
154690
154657
154714
154850
155056
155238
155369
155268
155124
154951
154712
154649
154784
154990
155148
155293
155479
155387
155130
154859
154506
154371
154503
154701
154822
154881
154860
154707
154459
154277
154185
154136
154287
154532
154697
154829
154899
154903
154775
154608
154353
154372
154611
154845
154936
155169
155254
155155
154968
154791
154537
154491
154610
154761
154827
155093
155174
155115
154944
154809
154586
154483
154504
154732
154972
155181
155293
155231
154999
154799
154564
154505
154603
154784
154995
155190
155244
155156
154979
154813
154606
154493
154550
154770
155001
155226
155295
155255
155071
154892
154619
154559
154621
154844
155011
155135
155209
155124
154942
154843
154654
154634
154689
154820
155027
155242
155319
155212
155040
154888
154655
154629
154770
154941
155109
155230
155344
155293
155072
154890
154658
154624
154709
154899
154971
155154
155304
155357
155140
155030
154781
154660
154704
154908
155066
155237
155308
155202
155017
154853
154577
154510
154613
154827
154945
155152
155279
155175
154946
154807
154586
154572
154589
154740
154918
155071
155204
155158
154962
154759
154460
154298
154341
154655
154925
155165
155248
155131
154968
154835
154555
154467
154484
154624
154766
154982
155148
155093
154902
154740
154473
154338
154358
154563
154738
154965
155142
155129
154949
154761
154493
154384
154418
154592
154831
154975
155059
155047
154925
154865
154614
154460
154424
154587
154775
154980
155089
155056
154900
154749
154552
154446
154452
154560
154739
154932
155240
155232
155022
154872
154599
154449
154474
154629
154760
154944
155197
155195
155033
154842
154579
154460
154490
154633
154841
155037
155173
155124
155017
154900
154614
154459
154474
154630
154828
154979
155205
155273
155105
154917
154647
154521
154508
154576
154764
154968
155297
155321
155096
154902
154624
154454
154554
154721
154889
155046
155199
155229
155119
154936
154660
154606
154699
154920
154999
155124
155202
155215
155117
155015
154738
154580
154601
154753
154887
155044
155251
155258
155066
154896
154714
154622
154566
154720
154945
155086
155248
155248
155064
154864
154635
154556
154599
154733
154866
155111
155360
155368
155173
154998
154786
154600
154524
154639
154843
155178
155409
155389
155208
155064
154781
154568
154585
154805
154997
155135
155296
155368
155210
155047
154847
154652
154539
154714
154981
155212
155452
155518
155379
155137
154950
154776
154762
154901
155048
155156
155388
155520
155347
155188
154928
154707
154651
154879
155142
155343
155609
155576
155408
155348
155119
154896
154873
155002
155134
155248
155499
155711
155568
155329
155183
155016
154960
155097
155228
155394
155613
155672
155631
155486
155216
155043
155004
155144
155374
155540
155804
155880
155729
155519
155270
155121
155051
155209
155434
155678
155937
156001
155842
155640
155298
155140
155150
155370
155636
155778
155940
155956
155811
155663
155428
155279
155264
155332
155493
155689
155869
155937
155912
155778
155500
155277
155261
155422
155644
155913
156055
156050
155999
155866
155626
155502
155473
155523
155722
155836
156130
156207
156112
155915
155742
155536
155473
155596
155796
155979
156208
156343
156296
156114
155963
155760
155765
156003
156149
156266
156435
156534
156458
156239
156011
155793
155690
155740
155878
155884
156025
156069
155930
155772
155615
155532
155499
155527
155770
155882
156135
156291
156258
156162
156001
155862
155834
155898
156191
156445
156596
156612
156561
156429
156247
156114
156071
156117
156293
156499
156755
156852
156784
156524
156283
156225
156190
156287
156467
156578
156743
156924
156915
156613
156376
156295
156339
156423
156586
156737
156996
157082
157053
156835
156633
156489
156407
156454
156761
156881
157117
157170
157118
156946
156745
156632
156612
156592
156813
156926
157216
157353
157259
157064
156854
156754
156669
156702
156932
157064
157292
157373
157405
157287
157118
156953
156875
156888
157079
157274
157485
157573
157571
157388
157233
157136
156986
157026
157201
157299
157532
157690
157641
157546
157347
157129
156982
157027
157298
157469
157700
157782
157665
157533
157353
157175
157051
157114
157286
157384
157634
157757
157787
157620
157415
157185
157089
157153
157330
157469
157655
157772
157788
157602
157351
157080
157057
157110
157359
157498
157753
157916
157798
157662
157500
157305
157169
157172
157353
157566
157788
157852
157812
157566
157401
157281
157212
157278
157389
157507
157726
157878
157839
157688
157486
157255
157150
157147
157278
157484
157767
157932
157883
157738
157501
157253
157138
157202
157294
157421
157676
157852
157849
157909
157689
157434
157206
157215
157347
157459
157745
157904
157891
157720
157445
157358
157268
157253
157402
157512
157754
157919
157862
157768
157597
157426
157241
157222
157383
157521
157718
157950
157927
157701
157502
157363
157216
157254
157489
157635
157850
158021
157958
157778
157586
157414
157274
157241
157405
157510
157668
157873
157948
157859
157736
157472
157264
157326
157497
157583
157791
157939
157916
157753
157597
157480
157317
157336
157438
157439
157665
157914
157925
157848
157620
157496
157358
157252
157369
157528
157727
157948
157956
157789
157498
157260
157142
157187
157408
157615
157845
157968
157957
157762
157505
157355
157167
157167
157300
157417
157699
157947
157921
157674
157517
157323
157155
157131
157420
157529
157632
157788
157882
157770
157574
157436
157226
157170
157338
157447
157607
157774
157829
157655
157507
157358
157142
157117
157229
157386
157606
157791
157797
157587
157362
157337
157117
157034
157208
157293
157449
157653
157737
157668
157514
157355
157110
157011
157176
157320
157462
157704
157806
157592
157367
157184
156960
156914
157066
157245
157507
157756
157738
157540
157268
157113
156933
156977
157138
157191
157330
157561
157584
157414
157208
157103
156931
156878
156951
157059
157264
157555
157692
157599
157319
157118
156896
156794
156937
157134
157335
157551
157588
157455
157217
157075
156867
156804
156884
157024
157198
157330
157379
157315
157189
157004
156811
156703
156808
156920
157161
157387
157477
157371
157108
156956
156717
156612
156673
156739
157013
157322
157429
157337
157091
156926
156696
156590
156642
156849
157060
157275
157362
157198
156967
156812
156614
156483
156473
156604
156787
156992
157068
157026
156838
156746
156541
156426
156458
156630
156803
157035
157060
156977
156767
156590
156382
156250
156334
156514
156679
156917
156981
156829
156599
156462
156218
156162
156231
156424
156652
156818
156886
156872
156680
156539
156388
156365
156417
156588
156750
156958
157035
156926
156623
156388
156128
156030
156027
156098
156197
156366
156392
156435
156157
155941
155780
155666
155659
155832
156131
156433
156442
156367
156241
156170
156065
156115
156163
156265
156417
156660
156755
156655
156404
156287
156043
155989
156097
156210
156446
156609
156697
156680
156472
156329
156132
155989
156009
156128
156322
156579
156660
156671
156484
156327
156084
155935
155971
156126
156340
156605
156712
156689
156478
156291
156065
155952
155934
156089
156324
156564
156622
156626
156401
156204
156011
155941
155905
156074
156332
156578
156672
156656
156439
156278
156035
155859
155915
156073
156248
156476
156606
156606
156410
156245
156068
155948
155923
156028
156217
156531
156685
156635
156377
156279
156078
155905
155963
156147
156275
156478
156574
156447
156249
156198
156001
155844
155914
156035
156267
156512
156600
156511
156282
156119
155876
155643
155696
155949
156170
156467
156599
156448
156238
156080
155877
155705
155784
155927
156058
156240
156443
156419
156217
156104
155839
155695
155704
155823
156000
156240
156426
156405
156244
156079
155840
155696
155740
155878
156052
156238
156381
156382
156190
156027
155858
155713
155693
155790
155985
156213
156272
156196
156103
156136
155903
155715
155724
155826
155972
156208
156357
156371
156144
155964
155733
155494
155473
155647
156042
156230
156408
156439
156200
155978
155790
155723
155723
155786
155946
156120
156334
156373
156147
155982
155723
155523
155550
155777
156010
156169
156288
156278
156095
155947
155793
155633
155629
155746
155881
156058
156205
156192
155990
155827
155856
155835
155727
155840
155972
156156
156293
156321
156133
155992
155859
155605
155569
155763
155927
156085
156289
156361
156229
156056
155798
155675
155621
155707
155925
156155
156354
156336
156092
155974
155833
155641
155604
155714
155870
156146
156278
156334
156106
156027
155926
155820
155747
155811
155952
156154
156355
156350
156144
155975
155828
155705
155648
155768
155955
156161
156326
156364
156126
155921
155805
155626
155729
155852
155980
156167
156391
156475
156225
155998
155859
155755
155648
155647
155777
155984
156315
156478
156272
156067
155937
155804
155717
155781
155960
156110
156235
156249
156096
156029
155976
155763
155630
155704
155790
156095
156384
156417
156221
156059
155869
155669
155617
155666
155923
156169
156367
156385
156212
155985
155822
155698
155623
155751
155947
156109
156271
156378
156244
156031
155898
155710
155712
155751
155879
156010
156228
156425
156327
156159
155937
155644
155598
155722
156003
156182
156332
156359
156231
156069
155921
155751
155663
155757
155980
156097
156245
156296
156215
156062
155942
155679
155598
155769
156056
156218
156364
156447
156344
156136
155944
155773
155744
155825
156034
156137
156278
156439
156390
156182
156042
155793
155722
155804
156014
156127
156315
156408
156328
156157
156014
155745
155628
155702
155957
156257
156423
156455
156340
156133
155974
155733
155649
155693
155887
156092
156378
156495
156393
156174
155940
155671
155679
155787
156058
156209
156377
156448
156217
156057
155981
155786
155735
155787
155980
156153
156422
156608
156646
156447
156315
156044
155906
155834
155981
156192
156419
156393
156332
156137
155920
155624
155401
155342
155545
155705
155949
156017
156010
155911
155725
155564
155502
155595
155841
155962
156179
156317
156320
156286
156160
155925
155770
155750
155980
156198
156431
156637
156458
156231
156133
155954
155819
155819
156012
156205
156405
156472
156499
156430
156302
156055
155858
155724
155902
156155
156433
156539
156480
156312
156171
155916
155849
155931
156068
156219
156485
156631
156530
156416
156255
155973
155818
155873
156042
156207
156356
156530
156524
156348
156145
155975
155851
155926
156217
156354
156570
156668
156516
156373
156249
155972
155788
155848
155974
156157
156434
156617
156579
156428
156337
156137
155965
155960
156128
156298
156493
156636
156607
156511
156389
156135
155958
155919
156092
156329
156547
156734
156679
156541
156414
156140
155960
155921
156118
156262
156353
156542
156517
156476
156287
156005
155857
155899
156120
156216
156375
156583
156589
156496
156270
155980
155781
155807
156121
156275
156480
156599
156590
156422
156265
156033
155857
155838
156023
156217
156375
156448
156474
156410
156221
156089
155956
155834
156026
156217
156437
156595
156502
156297
156219
156052
155940
156007
156126
156320
156530
156641
156541
156379
156247
156077
155922
155912
156068
156229
156373
156545
156509
156432
156274
156118
155949
155904
156056
156173
156343
156495
156501
156408
156291
156096
156059
156002
156111
156196
156390
156567
156580
156426
156270
156046
155821
155788
156052
156220
156425
156605
156543
156375
156213
156089
155911
155872
156110
156300
156363
156484
156462
156336
156265
156178
155989
155873
156043
156185
156378
156592
156606
156447
156280
156100
155887
155805
156029
156238
156426
156574
156581
156404
156340
156197
155984
155819
155952
156190
156400
156570
156586
156515
156312
156101
155914
155811
155935
156117
156385
156747
156749
156552
156359
156167
155960
155832
155976
156242
156501
156593
156569
156430
156243
156158
156002
155877
155998
156199
156277
156512
156609
156537
156362
156234
156024
155883
156030
156291
156419
156549
156553
156439
156301
156175
156006
155848
155952
156163
156444
156642
156628
156514
156382
156192
155951
155854
156024
156177
156272
156534
156692
156742
156474
156293
156097
155904
155939
156063
156247
156515
156655
156617
156392
156214
155970
155888
156043
156293
156518
156612
156570
156525
156328
156173
155980
155861
155968
156204
156367
156559
156596
156552
156397
156255
156030
155868
155942
156140
156328
156652
156698
156671
156434
156233
156012
155885
155917
156167
156364
156684
156806
156628
156479
156424
156236
156087
156148
156365
156462
156581
156607
156629
156483
156307
156072
156050
156097
156344
156566
156747
156729
156714
156545
156349
156143
156022
156067
156303
156499
156716
156774
156701
156475
156311
156101
156014
156104
156272
156458
156670
156808
156774
156568
156384
156216
156050
156095
156270
156368
156575
156641
156596
156594
156533
156204
156035
156087
156338
156536
156781
156816
156731
156549
156402
156172
156091
156200
156340
156431
156583
156625
156683
156553
156430
156249
156143
156272
156460
156656
156897
156985
156953
156788
156654
156470
156299
156276
156397
156482
156641
156693
156703
156493
156153
155872
155721
155772
155975
156108
156331
156470
156417
156252
156212
156001
155803
155890
156236
156493
156694
156787
156859
156669
156517
156272
156133
156195
156342
156549
156750
156761
156759
156605
156457
156334
156139
156252
156427
156607
156841
156962
156899
156757
156578
156285
156134
156238
156392
156627
156838
156936
156933
156811
156642
156390
156219
156302
156500
156629
156771
156854
156887
156747
156619
156462
156362
156368
156514
156649
156819
156907
156902
156782
156643
156529
156357
156349
156497
156696
156929
157031
157013
156893
156853
156583
156285
156335
156562
156731
156891
157030
157015
156996
156873
156629
156437
156430
156573
156756
156930
157082
157134
157032
156879
156653
156415
156409
156618
156836
157004
157044
157035
156907
156746
156616
156406
156399
156571
156702
156911
157049
157094
156936
156742
156639
156448
156440
156551
156753
156872
157013
157065
156930
156722
156517
156268
156252
156441
156691
156915
157143
157122
156915
156726
156515
156289
156233
156475
156693
156897
157042
157064
156850
156665
156497
156300
156259
156427
156631
156883
156990
157068
156917
156746
156605
156382
156383
156528
156687
156806
156933
156996
156835
156690
156520
156419
156369
156481
156648
156808
156987
157068
156899
156763
156626
156462
156357
156458
156698
156877
156984
157161
157002
156763
156582
156449
156461
156511
156625
156808
156972
157064
156915
156798
156577
156332
156277
156415
156650
156854
156967
157071
156984
156864
156687
156494
156450
156539
156719
156862
156990
157041
156933
156789
156574
156392
156363
156555
156749
156898
157136
157217
156975
156768
156609
156403
156396
156591
156769
156912
157066
157170
157061
156929
156687
156485
156415
156592
156777
156916
157053
157188
157109
156892
156660
156422
156408
156561
156781
156960
157130
157204
157057
156811
156644
156484
156418
156497
156703
156817
156999
157083
157041
156825
156725
156558
156541
156662
156725
156839
157084
157222
157144
156911
156706
156443
156334
156426
156671
156992
157258
157265
157127
156892
156727
156585
156632
156608
156735
156876
157023
157190
157150
156915
156822
156597
156532
156621
156800
156953
157121
157265
157149
156898
156729
156555
156506
156539
156731
156884
157058
157272
157268
157031
156839
156573
156515
156583
156771
156907
157020
157148
157144
156962
156827
156534
156485
156554
156735
156952
157122
157196
157148
156970
156866
156638
156552
156593
156775
157003
157196
157238
157238
156986
156824
156584
156511
156547
156709
156912
157183
157238
157144
157045
156903
156652
156562
156601
156773
156954
157186
157262
157227
157045
156849
156602
156545
156570
156748
156872
157040
157163
157155
157128
156992
156710
156570
156547
156714
156934
157158
157283
157328
157119
156991
156727
156658
156723
156859
157007
157221
157295
157182
156979
156853
156639
156608
156718
156915
157110
157237
157319
157230
157010
156793
156581
156619
156740
156936
157093
157193
157264
157243
157075
156913
156639
156511
156554
156707
156830
157106
157363
157339
157192
156981
156700
156625
156681
156752
156896
157117
157271
157189
157023
156836
156610
156567
156675
156929
157082
157285
157405
157410
157330
157229
156900
156762
156732
156850
157026
157177
157378
157305
157067
156867
156557
156368
156301
156338
156448
156666
156880
156905
156795
156644
156455
156311
156368
156585
156695
156873
157109
157131
157016
156903
156703
156556
156580
156785
156960
157127
157371
157341
157117
156927
156733
156613
156686
156822
156977
157128
157292
157287
157144
157012
156821
156779
156833
156967
157109
157258
157362
157330
157137
156961
156770
156662
156749
156924
157090
157212
157370
157408
157169
157053
156842
156728
156753
156877
157080
157169
157387
157429
157234
157048
156885
156749
156763
156880
157014
157132
157333
157479
157309
157135
156874
156761
156780
156947
157021
157190
157334
157416
157280
157160
156963
156793
156781
156860
156982
157196
157536
157539
157329
157156
156951
156769
156758
157001
157165
157312
157452
157453
157254
157130
157010
156832
156782
156893
157004
157124
157267
157253
157118
157163
157012
156727
156695
156822
156994
157133
157306
157312
157096
156915
156669
156506
156529
156787
157033
157059
157278
157249
157143
157027
156845
156688
156613
156736
156854
156961
157169
157281
157161
156950
156753
156574
156588
156744
156882
157019
157179
157260
157171
156965
156668
156435
156389
156565
156776
157005
157242
157315
157158
156934
156735
156598
156586
156646
156823
156961
157189
157169
156966
156904
156733
156504
156430
156503
156610
156766
156956
157113
157057
156840
156713
156526
156383
156415
156639
156794
157082
157164
157029
156831
156607
156372
156344
156448
156600
156735
157062
157171
157119
156946
156670
156448
156333
156366
156606
156819
157096
157235
157045
156707
156507
156444
156426
156605
156774
156901
157101
157145
156990
156766
156565
156464
156361
156396
156586
156817
157233
157311
157103
156864
156658
156430
156376
156418
156633
156823
157080
157090
156955
156729
156527
156373
156439
156525
156633
156700
156915
156984
157086
156891
156656
156453
156390
156404
156619
156708
156906
156922
156950
156883
156710
156514
156391
156459
156683
156838
157047
157170
157029
156658
156473
156404
156373
156288
156496
156669
157059
157246
157212
156976
156719
156496
156406
156439
156607
156761
157047
157114
156992
156690
156529
156493
156526
156512
156626
156806
157093
157163
157093
156909
156702
156529
156435
156492
156629
156696
156871
156938
156903
156800
156768
156629
156443
156494
156791
156778
156943
157087
157042
156844
156630
156503
156422
156420
156471
156565
156887
157100
157088
156916
156677
156538
156365
156421
156583
156779
156976
157027
157020
156966
156738
156525
156382
156352
156534
156660
156920
157152
157093
156944
156787
156545
156366
156388
156533
156740
156920
157027
157001
156912
156776
156530
156318
156346
156570
156777
157072
157258
157167
156909
156742
156506
156384
156448
156526
156686
157004
157149
157156
156970
156784
156699
156500
156494
156616
156625
156923
157092
157006
156965
156856
156693
156527
156498
156567
156623
156928
157045
157076
156960
156707
156534
156463
156431
156556
156753
157029
157183
157090
156930
156813
156582
156403
156373
156482
156728
157033
157280
157205
156965
156758
156618
156566
156658
156807
156899
157155
157315
157405
157259
157080
156931
156793
156834
156955
157033
157275
157292
157145
156929
156826
156521
156224
156320
156495
156595
156811
156955
156941
156724
156495
156337
156383
156232
156503
156787
157026
157124
157211
157111
156937
156853
156719
156612
156833
157051
157283
157395
157421
157191
157106
157095
156837
156844
157009
157064
157184
157441
157440
157254
157217
157075
156963
156926
157018
157160
157360
157555
157626
157436
157275
157138
156863
156812
156972
157114
157480
157642
157667
157413
157163
157020
156915
156859
157039
157213
157443
157596
157582
157384
157171
156986
156779
156764
157022
157230
157509
157679
157678
157492
157287
157090
156876
156843
157036
157233
157436
157635
157718
157493
157251
157140
157038
156966
157070
157250
157431
157515
157457
157342
157184
157061
157047
157080
157169
157272
157444
157694
157718
157547
157261
157102
156900
156850
156965
157036
157224
157452
157559
157525
157350
157172
156946
156880
156960
157119
157332
157509
157515
157320
157105
156959
156771
156781
156832
156978
157249
157609
157704
157505
157193
156983
156798
156740
156926
157050
157196
157474
157514
157412
157303
157085
156816
156693
156852
157202
157398
157510
157456
157357
157121
156987
156824
156738
156734
157011
157333
157533
157610
157550
157304
157110
156863
156803
156905
157056
157268
157474
157549
157506
157235
157057
156863
156804
156911
157126
157341
157480
157532
157473
157135
156982
156805
156865
156946
157089
157370
157546
157608
157519
157161
157004
156843
156831
156965
157189
157308
157502
157528
157470
157265
157131
156976
156955
157052
157155
157313
157450
157529
157365
157221
157077
156804
156790
156847
157110
157268
157379
157448
157506
157350
157350
157077
156905
156982
157148
157276
157522
157578
157422
157150
157045
156814
156761
156975
157110
157323
157598
157599
157509
157264
157109
156845
156750
156775
156966
157242
157469
157631
157530
157218
157073
156816
156786
156940
157135
157363
157461
157550
157492
157231
157082
156867
156765
156868
157072
157262
157495
157573
157485
157233
157040
156811
156724
156862
157112
157305
157489
157483
157447
157241
157080
156973
156907
156897
156993
157220
157484
157532
157481
157335
157209
156959
156860
156900
157034
157156
157443
157575
157527
157290
157140
156950
156829
156904
157159
157330
157555
157641
157489
157328
157176
156908
156823
156981
157133
157330
157495
157624
157510
157308
157202
156941
156838
156928
157092
157328
157504
157541
157498
157257
157149
156969
156866
156989
157137
157284
157532
157687
157638
157428
157285
156996
156791
156879
157070
157328
157500
157606
157624
157355
157196
156994
156816
156885
157089
157287
157462
157631
157527
157324
157240
156979
156844
156915
157013
157270
157509
157629
157579
157410
157288
157002
156988
157032
157085
157287
157529
157648
157691
157479
157259
157099
156969
157029
157114
157278
157538
157733
157660
157454
157313
157172
156939
157042
157164
157292
157493
157677
157681
157451
157275
157092
156959
157058
157237
157461
157636
157745
157694
157511
157394
157146
157008
157081
157219
157424
157561
157750
157807
157668
157559
157414
157221
157196
157204
157403
157683
157839
157832
157517
157270
157072
157031
157212
157381
157564
157729
157848
157837
157624
157462
157288
157110
157066
157148
157385
157810
158025
157905
157682
157552
157358
157170
157177
157317
157462
157714
157890
157909
157695
157525
157377
157288
157371
157470
157591
157778
157953
157977
157828
157789
157637
157485
157393
157597
157790
157919
158004
158035
157746
157482
157312
157062
156896
156952
157152
157485
157638
157663
157434
157311
157142
156947
157008
157206
157393
157537
157797
157824
157691
157577
157455
157259
157237
157373
157638
157815
157965
158006
157777
157629
157452
157355
157259
157314
157554
157781
157957
158006
157809
157693
157518
157437
157398
157493
157709
157903
158019
158048
157809
157658
157525
157362
157399
157513
157760
157884
157984
158068
158003
157848
157649
157397
157327
157416
157651
157794
158030
158177
158089
157914
157678
157447
157437
157526
157697
157800
158005
158103
157999
157831
157730
157505
157465
157573
157761
157935
158084
158152
158020
157877
157743
157605
157478
157551
157752
157935
158175
158248
158160
157931
157791
157556
157485
157619
157891
158061
158190
158240
158146
157909
157790
157645
157513
157547
157738
157858
158100
158290
158150
157950
157775
157593
157522
157495
157711
157890
158074
158120
158018
157820
157665
157601
157517
157663
157809
157939
158142
158160
158070
157886
157692
157482
157494
157479
157638
157850
158235
158420
158192
158001
157821
157600
157450
157443
157712
158024
158198
158349
158213
158004
157831
157635
157493
157524
157676
157863
158177
158307
158222
157979
157847
157636
157472
157488
157761
157959
158187
158318
158198
157973
157804
157581
157505
157470
157697
157923
158184
158240
158188
157935
157866
157597
157433
157565
157814
157948
158219
158272
158130
157978
157859
157650
157475
157464
157678
157833
158097
158252
158253
158120
157975
157667
157525
157532
157730
157919
158209
158319
158245
158053
157860
157587
157612
157766
157888
158051
158233
158246
158218
158099
157890
157652
157547
157605
157894
158065
158302
158363
158217
158008
157852
157707
157652
157678
157856
158065
158214
158317
158298
158241
158025
157806
157747
157738
157911
158020
158252
158466
158465
158248
158082
157856
157785
157772
157889
158111
158381
158445
158314
158153
158132
157968
157832
157877
158057
158211
158461
158541
158339
158193
158132
157946
157787
157742
157958
158172
158409
158499
158444
158320
158158
158012
157796
157822
158032
158203
158389
158490
158434
158291
158174
158055
157952
157915
158093
158269
158442
158555
158509
158430
158249
157976
157836
157877
158075
158253
158459
158649
158594
158437
158274
157963
157782
157800
157978
158238
158437
158579
158513
158393
158305
158206
158009
157930
158109
158322
158466
158569
158480
158364
158308
158078
157873
157916
158167
158382
158551
158688
158553
158411
158318
158146
157955
157946
158112
158254
158514
158660
158621
158594
158404
158218
158045
157965
158148
158323
158518
158669
158601
158425
158347
158180
158066
158000
158173
158279
158472
158604
158621
158553
158407
158102
157914
157886
158151
158425
158519
158656
158618
158422
158235
158111
157979
157977
158256
158450
158599
158667
158623
158465
158293
158123
157989
157946
158082
158197
158384
158644
158678
158586
158391
158164
157922
157875
158132
158321
158479
158669
158579
158382
158342
158180
157966
157931
158149
158289
158496
158615
158587
158431
158291
158148
157991
157949
158104
158263
158492
158764
158766
158634
158447
158271
158098
158008
158210
158482
158678
158882
158929
158763
158483
158242
158153
158188
158273
158272
158405
158530
158408
158164
157922
157753
157621
157576
157719
157945
158154
158352
158388
158294
158195
158030
157878
157843
158046
158228
158413
158642
158689
158566
158414
158247
158083
157980
158101
158358
158483
158601
158661
158604
158429
158238
158035
157954
158110
158298
158410
158552
158554
158540
158528
158351
158074
157940
158125
158273
158405
158612
158660
158603
158408
158161
158002
157917
158011
158215
158339
158560
158660
158594
158431
158267
158000
157881
158027
158191
158244
158454
158468
158468
158391
158229
158003
157883
157989
158158
158335
158539
158546
158532
158291
158105
157903
157774
157811
158009
158219
158553
158663
158567
158383
158184
157944
157860
157919
158079
158220
158426
158369
158273
158147
158089
157903
157878
157965
158118
158214
158436
158475
158407
158182
157987
157735
157710
157810
158027
158151
158347
158531
158438
158160
157980
157733
157682
157743
157934
158063
158310
158337
158275
158017
157871
157605
157462
157599
157895
158068
158277
158285
158240
158029
157859
157676
157565
157621
157799
157960
158153
158153
158103
157948
157843
157641
157529
157687
157859
158014
158204
158221
158170
157963
157796
157570
157470
157609
157767
157946
158152
158219
158190
157977
157794
157617
157501
157558
157653
157765
158020
158071
158016
157776
157701
157609
157484
157494
157672
157937
158101
158133
158118
157997
157747
157498
157353
157449
157680
157852
158093
158120
157979
157747
157663
157516
157390
157380
157560
157783
158022
158188
158065
157815
157630
157439
157331
157321
157476
157633
157923
158120
158058
157776
157634
157472
157393
157384
157561
157672
157861
157990
157980
157800
157685
157508
157304
157317
157532
157729
157871
157942
157929
157868
157830
157567
157341
157435
157574
157712
157932
158055
157956
157743
157569
157381
157250
157393
157610
157818
157959
157999
157976
157819
157655
157388
157221
157234
157405
157674
157869
157950
157954
157803
157676
157483
157312
157300
157471
157600
157810
157960
157906
157746
157599
157427
157225
157291
157449
157600
157797
157998
158011
157857
157630
157492
157230
157267
157394
157534
157816
157923
157884
157794
157663
157403
157183
157204
157371
157579
157807
157845
157965
157768
157631
157452
157259
157265
157469
157652
157801
157923
157964
157725
157512
157404
157308
157266
157401
157534
157703
157848
157886
157740
157554
157370
157140
157176
157360
157548
157757
157848
157902
157703
157485
157217
157017
157058
157330
157500
157629
157810
157826
157687
157525
157296
157130
157171
157234
157315
157497
157678
157796
157600
157437
157292
157051
157032
157274
157395
157559
157747
157766
157531
157371
157246
157055
157098
157176
157249
157529
157700
157686
157600
157399
157208
157066
157037
157164
157333
157492
157658
157752
157571
157399
157240
157055
157087
157272
157359
157562
157729
157758
157588
157351
157199
156949
156886
157006
157215
157388
157538
157673
157602
157423
157253
157058
156990
157090
157216
157372
157580
157649
157489
157330
157153
156855
156873
157109
157304
157359
157565
157667
157522
157309
157107
156874
156906
156972
157197
157442
157665
157711
157543
157381
157268
157093
157071
157196
157373
157600
157863
157810
157703
157556
157317
157060
156938
156955
157090
157185
157288
157330
157108
156857
156664
156444
156479
156668
156845
156991
157188
157300
157275
157145
156980
156736
156761
156883
157050
157168
157360
157480
157482
157402
157191
156887
156816
156934
157126
157282
157460
157587
157550
157293
157092
156839
156859
156978
157080
157260
157449
157530
157467
157270
157095
156822
156782
156876
157109
157328
157497
157605
157459
157282
157091
156840
156794
156842
157050
157369
157668
157863
157645
157319
157088
156845
156786
156975
157202
157319
157515
157568
157518
157313
157141
156892
156944
156973
157152
157277
157432
157548
157581
157276
157144
156905
156841
156966
157197
157252
157424
157555
157519
157259
157094
156824
156851
156899
157039
157108
157320
157559
157543
157279
157143
156826
156687
156760
157056
157233
157448
157533
157407
157188
157059
156796
156687
156785
156859
156972
157200
157405
157466
157233
157023
156741
156605
156671
156901
157060
157274
157331
157304
157080
156909
156645
156562
156561
156755
156941
157131
157290
157266
157101
156907
156647
156552
156570
156759
156931
157177
157282
157219
157027
156826
156571
156546
156671
156868
156974
157159
157284
157237
157126
156926
156668
156568
156622
156791
156929
157033
157173
157250
157214
156990
156697
156566
156604
156774
156861
157066
157273
157268
157015
156818
156656
156580
156639
156753
156943
157086
157232
157206
156977
156753
156463
156513
156599
156780
156918
157036
157143
157087
156904
156720
156440
156302
156448
156755
156936
157060
157183
157102
157006
156757
156553
156505
156551
156720
156835
156980
157102
157030
156847
156769
156566
156545
156565
156758
156922
157094
157256
157251
157134
156952
156629
156413
156478
156709
156947
157112
157305
157251
157061
156920
156706
156554
156631
156816
156996
157157
157319
157326
157143
156963
156684
156500
156516
156690
156921
157171
157392
157335
157125
156948
156680
156552
156569
156802
156958
157072
157259
157306
157134
156939
156732
156606
156574
156819
156984
157080
157195
157224
157113
157025
156741
156508
156530
156804
157052
157111
157230
157207
157082
156934
156668
156525
156610
156736
156859
156995
157235
157309
157020
156932
156759
156582
156560
156688
156795
156987
157192
157268
157057
156844
156586
156450
156416
156582
156744
156920
157212
157274
157036
156854
156685
156558
156464
156685
156893
157005
157169
157167
157012
156858
156603
156453
156410
156665
156780
156920
157179
157273
157145
156929
156692
156549
156525
156624
156758
156816
157073
157185
157047
156868
156671
156537
156475
156615
156834
156950
157059
157032
156884
156796
156616
156456
156443
156612
156805
156933
157118
157138
157003
156818
156607
156500
156431
156489
156646
156789
157039
157123
157060
156916
156579
156366
156370
156549
156683
156808
156991
157044
157010
156882
156610
156377
156299
156441
156586
156733
156975
157043
156955
156776
156513
156386
156348
156428
156626
156725
156910
156931
156843
156705
156495
156335
156297
156488
156776
156794
156965
157033
156952
156755
156590
156434
156410
156511
156775
156887
157157
157264
157108
156895
156602
156345
156239
156256
156403
156537
156722
156663
156523
156319
156122
155965
155988
156012
156231
156346
156663
156689
156649
156481
156338
156232
156158
156305
156481
156678
156871
156907
156765
156498
156352
156204
156149
156207
156421
156584
156884
157000
156839
156580
156321
156180
156162
156283
156480
156576
156828
156866
156790
156614
156469
156235
156160
156154
156347
156410
156699
156804
156785
156718
156518
156283
156268
156315
156468
156547
156735
156836
156807
156607
156446
156227
156135
156138
156499
156640
156909
157041
156942
156659
156378
156209
156173
156282
156400
156548
156770
156802
156892
156728
156474
156277
156248
156304
156491
156594
156835
156899
156817
156660
156501
156272
156144
156215
156446
156579
156770
156841
156734
156584
156403
156232
156214
156240
156358
156468
156745
156887
156826
156625
156529
156319
156192
156178
156336
156406
156579
156734
156777
156703
156501
156347
156260
156232
156368
156486
156661
156772
156734
156590
156415
156193
156083
156112
156306
156498
156678
156831
156713
156603
156458
156271
156162
156199
156310
156429
156594
156687
156700
156627
156419
156248
156103
156136
156256
156415
156645
156768
156688
156510
156322
156179
156066
156165
156388
156501
156728
156719
156694
156528
156369
156150
156059
156037
156214
156405
156684
156758
156718
156615
156442
156217
156028
156008
156180
156334
156548
156722
156717
156549
156314
156178
156100
156136
156282
156419
156595
156725
156661
156575
156406
156217
156080
156170
156306
156429
156699
156836
156772
156581
156426
156188
156027
156073
156250
156375
156565
156805
156876
156687
156455
156285
156099
156100
156310
156442
156654
156878
156888
156758
156517
156326
156108
156091
156332
156449
156726
156927
156907
156731
156493
156365
156189
156197
156367

[HeartVoice API 返回]
# HeartVoice 专业 API 返回的聚合指标（不返回原始波形分析数据）
# 与下方 [算法提取后的结构化特征] 对照可定位本地算法差异
平均心率:66
最低心率:0
最高心率:0
诊断:SN
QRS宽度:98
P波宽度:96
PR间期:150
QT间期:331
QTc:347
房性早搏:0
室性早搏:0
信号质量:0.91
导联反接:true
是否异常:false

[算法提取后的结构化特征]
# 由 EcgFeatureExtractor.extract() + toPromptText() 在手机端重建
# 与手表端发给 DeepSeek 的提示词文本一致（DS 实际收到的数据）
# 注意: 用户 profile（年龄性别）未存入测量记录，手机端重建时为'未知'
#       助手如需年龄性别做医学判断，需用户单独提供

[用户属性]

[全局指标]
采样率:500Hz 时长:30.7s 总点数:15340
R波检测:34个 平均心率:65bpm 范围:60-80bpm
R波位置(样本索引):2,338,979,2198,2369,2855,3015,3312,3994,4596,4821,5061,5784,6029,6401,7092,7268,7749,8209,8406,8681,8952,9248,10330,10827,11508,12992,13378,13734,13924,14170,14655,14911,15307
RR间期序列(ms，[*]为偏离均值>20%的异常间期，多为早搏/误检):[672*] [1282*] [2438*] [342*] 972 [320*] [594*] [1364*] [1204*] [450*] [480*] [1446*] [490*] 744 [1382*] [352*] 962 920 [394*] [550*] [542*] [592*] [2164*] 994 [1362*] 772 712 [380*] [492*] 970 [512*] 792
RR差值序列(ms):610,1156,-2096,630,-652,274,770,-160,-754,30,966,-956,254,638,-1030,610,-42,-526,156,-8,50,1572,-1170,368,-590,-60,-332,112,478,-458,280
SDNN:107.1ms RMSSD:179.5ms pNN50:87.5%
QRS宽度(本地估测,ms):57±24
PR间期(本地估测,ms):170±60
QT间期(本地估测,ms):401 QTc(Bazett):417ms QTc(Fridericia):411ms
R波平均振幅:0.57mV
R波极性:负向(负向提示导联反接/位置异常)
T/R振幅比:1.03(正常0.1-0.5，<0.1低平，>0.5高尖)
ST段偏移(本地估测,mV):0.019(正常±0.05，>0.1抬高，<-0.1压低)
信号质量:1.00 良好

[节律判别特征]
R波可靠性:可信
RR变异系数:0.123(轻度不齐)
Poincaré散点形态:鱼雷形(轻度不齐)
短-长RR配对数(早搏代偿):4个

[逐秒分段]
时段(s)  R波  振幅范围(mV)  峰峰值(mV)  最大斜率(mV/s)  RMS(mV)
0.0-1.0  2  -1.95~2.90  4.86  194.50  1.23
1.0-2.0  1  -0.87~0.79  1.66  174.50  0.35
2.0-3.0  0  -0.95~0.95  1.90  204.00  0.40  ← 本秒无R波(心率<60或代偿间隙)
3.0-4.0  0  -0.76~0.68  1.45  188.50  0.31  ← 本秒无R波(心率<60或代偿间隙)
4.0-5.0  2  -0.77~0.66  1.42  182.50  0.32
5.0-6.0  1  -0.75~0.62  1.38  181.00  0.30
6.0-7.0  2  -0.76~0.66  1.43  188.50  0.30
7.0-8.0  1  -0.71~0.55  1.25  184.50  0.28
8.0-9.0  0  -0.94~0.79  1.73  183.00  0.35  ← 本秒无R波(心率<60或代偿间隙)
9.0-10.0  2  -0.69~0.62  1.31  189.50  0.30
10.0-11.0  1  -1.76~1.36  3.12  204.00  0.76
11.0-12.0  1  -1.24~1.57  2.81  217.00  0.54
12.0-13.0  2  -0.84~0.68  1.52  202.00  0.29  ← 短RR+代偿间隙(早搏可能)
13.0-14.0  0  -0.86~0.60  1.45  167.00  0.29  ← 代偿间隙(配合前秒短RR)
14.0-15.0  2  -0.75~0.66  1.40  180.00  0.31
15.0-16.0  1  -0.84~0.78  1.63  165.00  0.37
16.0-17.0  2  -0.85~0.76  1.61  167.00  0.33
17.0-18.0  2  -1.09~1.20  2.29  170.50  0.42
18.0-19.0  1  -1.06~0.65  1.71  170.50  0.36
19.0-20.0  0  -0.68~0.72  1.40  173.50  0.31  ← 本秒无R波(心率<60或代偿间隙)
20.0-21.0  1  -0.85~0.84  1.69  191.50  0.36
21.0-22.0  1  -1.01~1.70  2.72  176.50  0.53
22.0-23.0  0  -1.45~0.91  2.36  154.50  0.53  ← 本秒无R波(心率<60或代偿间隙)
23.0-24.0  1  -0.74~0.66  1.39  197.50  0.29
24.0-25.0  0  -0.69~0.73  1.42  181.00  0.32  ← 本秒无R波(心率<60或代偿间隙)
25.0-26.0  1  -0.61~0.65  1.26  170.00  0.28
26.0-27.0  1  -0.74~0.75  1.49  208.00  0.35
27.0-28.0  2  -0.86~0.88  1.74  212.50  0.39
28.0-29.0  1  -0.88~0.86  1.75  167.00  0.37
29.0-30.0  2  -0.80~0.86  1.66  163.00  0.35
逐秒RMS:1.230,0.352,0.398,0.310,0.317,0.297,0.303,0.275,0.351,0.300,0.764,0.537,0.292,0.288,0.313,0.366,0.328,0.416,0.357,0.312,0.365,0.529,0.530,0.285,0.317,0.277,0.348,0.391,0.366,0.352

[AI 解读]
# DeepSeek 返回的原始 JSON（未清洗，可能含 markdown 代码块包裹）
本次测量未使用 AI 分析（分析方法非 ds_*）
