========== ECG 算法诊断包 ==========
测量时间: 2026-07-16 22:32:11
测量时间戳:1784212331077
采样率:500 Hz
数据点数:15440
时长:30.9 秒
分析方法:heartvoice

[原始 ECG 数据]
# 单位: mV×1000 整数（如 500 = 0.5mV，-1000 = -1.0mV）
# 采样率: 500 Hz，连续采样，无降采样无压缩
# 用途: 助手据此复现本地算法行为（基线漂移/噪声段/R波检测）
# 格式: 每行一个数值，行号=采样点索引（第1行=索引0，即 t=0.000s）
162345
162243
162212
162185
162132
162093
162112
162043
162141
162294
162411
162414
162364
162320
162356
162371
162565
162628
162567
162556
162597
162680
162654
162577
162495
162537
162704
162771
162736
162707
162701
162805
162765
162737
162750
162652
162701
162701
162689
162884
162878
163030
163099
163042
163018
162903
163006
162991
162870
162834
162742
162950
163133
163192
163173
163030
163014
163064
163104
163096
163037
163078
163128
163119
163111
163058
163122
163182
163238
163257
163181
163092
162962
162780
162650
162588
162655
162760
162690
162602
162583
162625
162672
162687
162648
162522
162493
162624
162863
162926
162876
162898
162877
162897
162890
162834
162885
162991
163067
163086
163055
163103
163126
163172
163166
163095
163164
163178
163207
163185
163144
163144
163250
163362
163374
163314
163360
163359
163281
163197
163161
163348
163561
163521
163492
163391
163332
163354
163387
163346
163324
163368
163536
163572
163472
163263
163265
163346
163407
163500
163490
163430
163437
163425
163387
163373
163432
163514
163519
163451
163403
163428
163493
163545
163569
163493
163436
163508
163555
163453
163359
163401
163657
163760
163740
163719
163693
163696
163658
163635
163655
163699
163722
163759
163684
163665
163826
163939
163929
163951
163916
163985
164017
163988
163984
163902
163883
163949
164045
164130
164369
164389
164314
164302
164323
164281
164329
164301
164290
164356
164365
164411
164485
164460
164594
164635
164658
164626
164452
164487
164527
164625
164732
164779
164773
164721
164705
164683
164724
164764
164809
164958
165015
164925
164881
164841
164830
164849
164887
164830
164943
165087
165192
165119
165103
164993
164984
165085
165114
165081
165044
165098
165070
165124
165180
165238
165312
165283
165227
165247
165234
165298
165344
165295
165280
165327
165365
165390
165351
165397
165383
165449
165566
165520
165492
165347
165372
165459
165478
165590
165584
165596
165564
165504
165522
165511
165606
165763
165785
165791
165716
165799
165853
165872
165962
166003
165977
165931
165942
166006
166057
166136
166207
166284
166262
166181
166151
166183
166297
166340
166356
166337
166333
166326
166442
166467
166544
166560
166548
166525
166620
166713
166736
166803
166773
166689
166712
166720
166731
166857
166894
166886
166876
166872
166860
166893
166946
166937
166917
166874
166892
167054
167044
167059
167091
167073
167193
167250
167160
167133
167093
167192
167247
167235
167161
167118
167106
167176
167179
167147
167193
167400
167427
167392
167307
167284
167320
167334
167346
167389
167492
167598
167535
167543
167553
167558
167569
167591
167651
167810
167913
167888
167880
167810
167707
167636
167520
167433
167391
167369
167282
167290
167275
167331
167348
167361
167384
167351
167348
167424
167464
167440
167395
167505
167583
167842
167938
167809
167750
167816
167840
167936
167903
167908
167884
167817
167861
167841
167880
168123
168175
168054
168081
168106
168119
168016
168010
167996
167967
168016
168038
168145
168209
168214
168179
168136
168201
168230
168251
168237
168200
168249
168211
168268
168300
168221
168253
168369
168438
168411
168404
168484
168482
168422
168461
168460
168391
168256
168259
168318
168524
168668
168697
168669
168641
168582
168474
168453
168516
168623
168578
168558
168549
168573
168664
168660
168709
168781
168823
168816
168650
168671
168717
168752
168766
168715
168745
168769
168843
168749
168816
168889
168963
168844
168864
168799
168847
168878
168871
168845
168810
168758
168708
168686
168838
168917
168914
168929
168885
168869
168833
168906
168858
168817
168784
168786
168777
168881
168858
168831
168784
168811
168885
168920
168895
168770
168725
168719
168677
168896
168881
168925
169097
169044
169024
168990
169041
168966
168785
168922
168888
168919
168911
168920
168937
169023
169201
169170
169118
169104
169058
169053
169050
169093
169076
169007
169011
169053
169102
169137
169163
169215
169224
169259
169194
169215
169322
169273
169216
169225
169292
169346
169348
169387
169368
169292
169226
169210
169284
169481
169401
169445
169443
169416
169424
169353
169402
169413
169456
169492
169415
169405
169393
169380
169302
169280
169404
169458
169484
169432
169335
169408
169475
169376
169393
169348
169338
169402
169471
169434
169441
169358
169395
169392
169386
169294
169350
169317
169319
169355
169347
169318
169362
169372
169413
169391
169398
169374
169316
169340
169288
169224
169256
169261
169278
169280
169407
169368
169332
169313
169215
169218
169245
169307
169408
169361
169356
169314
169328
169290
169344
169348
169398
169406
169335
169263
169289
169258
169248
169221
169257
169410
169568
169527
169641
169493
169388
169351
169341
169289
169303
169348
169501
169501
169511
169458
169467
169461
169363
169424
169532
169474
169476
169520
169480
169471
169475
169400
169390
169413
169419
169451
169497
169608
169568
169544
169529
169452
169441
169469
169416
169450
169496
169531
169457
169401
169407
169485
169567
169524
169514
169527
169506
169441
169425
169469
169509
169417
169407
169410
169351
169406
169495
169537
169527
169480
169415
169270
169353
169321
169329
169451
169471
169390
169413
169393
169468
169411
169356
169363
169416
169451
169425
169469
169426
169346
169371
169349
169305
169274
169239
169221
169328
169333
169263
169313
169389
169357
169323
169331
169280
169277
169342
169323
169232
169126
169162
169244
169318
169259
169185
169243
169265
169384
169429
169344
169320
169286
169217
169158
169145
169133
169271
169451
169518
169389
169399
169330
169279
169280
169301
169403
169539
169569
169555
169524
169514
169532
169527
169430
169404
169416
169394
169306
169061
169054
169037
168959
168829
168732
168713
168830
168922
168854
168826
168941
169022
168970
168946
168967
168919
169066
169147
169108
169129
169216
169178
169180
169134
169109
169207
169188
169073
169149
169184
169252
169188
169099
169067
169074
168981
168993
169064
169145
169183
169143
169112
169075
169070
168989
168994
169048
169081
169082
169164
169150
169142
169093
169076
169064
169101
169103
169094
169052
169066
168998
169033
169015
169044
169139
169133
168986
168968
169066
169161
169077
169140
169111
169082
169058
168990
169025
169132
169147
169132
169076
169176
169147
169148
169173
169100
169122
169081
169074
169100
169138
169221
169205
169196
169056
169024
169073
169144
169240
169259
169116
169260
169178
169112
169085
169102
169085
169021
169066
169116
169067
169067
168982
168979
169085
169075
168987
168926
168865
168904
168814
168853
168905
168944
168923
168792
168764
168716
168699
168884
168903
168907
168832
168712
168761
168691
168816
168904
168898
168905
168781
168815
168782
168695
168678
168708
168686
168749
168794
168797
168724
168816
168800
168807
168745
168730
168784
168791
168681
168688
168750
168769
168823
168812
168804
168770
168790
168844
168870
168797
168798
168844
168869
168797
168754
168700
168719
168823
168928
168897
168865
168896
168902
168816
168848
168807
168868
168858
168799
168686
168726
168753
168994
168917
168774
168696
168700
168819
168818
168746
168686
168737
168776
168797
168805
168705
168660
168720
168766
168755
168647
168669
168784
168751
168692
168663
168629
168641
168662
168675
168607
168759
168830
168748
168663
168607
168646
168668
168648
168651
168662
168582
168515
168488
168609
168576
168700
168796
168688
168677
168682
168703
168665
168628
168624
168559
168553
168520
168568
168546
168502
168636
168708
168727
168741
168670
168698
168657
168604
168598
168690
168771
168747
168725
168606
168554
168664
168724
168766
168743
168692
168726
168554
168532
168597
168611
168659
168639
168689
168686
168717
168708
168700
168718
168686
168632
168597
168683
168707
168749
168706
168708
168670
168708
168704
168680
168675
168663
168647
168714
168696
168716
168686
168572
168502
168463
168564
168716
168764
168808
168705
168670
168617
168546
168560
168539
168579
168705
168705
168649
168604
168578
168583
168520
168547
168543
168477
168409
168394
168444
168528
168565
168550
168465
168496
168505
168552
168623
168647
168617
168527
168455
168503
168541
168524
168508
168549
168579
168596
168503
168487
168593
168566
168479
168460
168343
168360
168410
168428
168441
168456
168523
168517
168519
168533
168478
168451
168485
168461
168426
168387
168449
168490
168504
168453
168403
168462
168435
168425
168401
168328
168352
168372
168435
168448
168385
168426
168453
168474
168421
168370
168406
168472
168480
168337
168267
168349
168488
168399
168418
168379
168641
168830
168754
168623
168552
168634
168670
168656
168613
168572
168674
168564
168488
168429
168302
168237
168119
168015
168128
168149
168062
167920
167929
167942
167976
167960
168070
168153
168206
168170
168208
168305
168346
168183
168194
168327
168423
168483
168458
168385
168322
168262
168220
168254
168230
168234
168200
168281
168369
168428
168378
168305
168319
168319
168203
168205
168195
168216
168244
168221
168161
168062
168244
168306
168327
168342
168298
168297
168183
168145
168190
168168
168288
168276
168256
168288
168253
168218
168171
168186
168297
168411
168378
168259
168123
168114
168235
168297
168273
168254
168261
168195
168197
168232
168229
168289
168377
168330
168263
168298
168323
168405
168436
168334
168242
168265
168275
168403
168584
168544
168495
168385
168285
168342
168357
168396
168469
168503
168596
168521
168462
168439
168392
168356
168322
168421
168436
168401
168402
168297
168284
168356
168312
168208
168154
168294
168277
168256
168174
168208
168202
168179
168135
168079
168036
168186
168160
168155
168090
168059
168046
168098
168162
168108
168035
167961
168067
168220
168202
168127
168127
168088
168075
168058
167917
167913
167988
167927
167897
167921
167951
167917
168013
168103
168106
168021
167952
167975
167915
167913
167980
168050
168093
167984
167958
167923
167902
168028
168013
167940
167926
167934
167917
168018
168092
168000
168024
168073
168077
167987
168034
168116
168037
167980
167872
167943
168034
168138
168248
168223
168083
167982
168026
167986
167962
168030
168117
168072
168014
167992
168095
168074
168036
168047
168061
168025
167970
168016
168131
168083
168129
168138
168056
167988
167987
168011
168029
168070
168188
168187
168106
168054
167990
168026
168045
168173
168143
168072
168121
168047
167987
168007
168138
168181
168060
168022
168009
168001
167939
167916
167950
168105
168114
168121
167937
167918
168075
168003
167995
167998
168053
168050
168031
168014
167861
167922
168018
168112
168196
168171
168030
167925
167864
167844
167920
167993
168015
167994
168028
167950
167879
167894
167989
168058
168121
168050
167974
167987
167947
167943
167931
167961
167965
167930
167890
167970
167995
168094
167999
167922
167968
167960
168013
167959
167846
167888
167921
167943
168011
167918
167872
167960
168102
168136
168016
167925
167938
167982
168002
167975
167964
167944
167934
167815
167770
167945
167949
167964
167947
167892
167880
167806
167763
167776
167910
167987
167889
167863
167872
167795
167790
167857
167854
167843
167761
167848
167882
167940
167849
167697
167780
167841
167880
167849
167765
167749
167718
167764
167806
167823
167865
167829
167761
167752
167679
167724
167816
167818
167825
167732
167715
167687
167683
167721
167782
167787
167773
167814
167832
167786
167790
167701
167656
167688
167666
167709
167703
167799
167780
167695
167696
167737
167841
167890
167749
167789
167837
167763
167796
167837
167969
167939
167786
167667
167678
167696
167748
167764
167818
167879
167902
167901
167932
167881
167849
167886
167871
167844
167891
167939
168057
168184
168173
168118
167991
168018
167974
167956
167919
167837
167702
167558
167491
167436
167478
167406
167391
167428
167404
167256
167268
167503
167658
167771
167703
167619
167698
167746
167750
167750
167778
167742
167747
167752
167816
167813
167775
167768
167828
167795
167786
167729
167799
167814
167828
167868
167862
167760
167750
167782
167780
167803
167845
167813
167773
167797
167873
167914
167932
167873
167803
167737
167869
167880
167852
168038
167917
167895
167832
167747
167851
167863
167829
167828
167872
167942
167954
167900
167952
167873
167877
167836
167751
167867
167786
167857
167896
167902
167863
167853
167861
167909
167952
167913
167928
167969
168063
167998
167840
167851
167944
167918
167904
168010
167992
168051
168028
168055
168113
168064
168028
168025
167978
167964
167975
168022
168002
168018
168054
167984
168005
167956
167925
167931
167832
167897
167909
167974
167896
167801
167845
167967
167879
167732
167745
167822
167830
167791
167701
167703
167765
167826
167759
167637
167525
167486
167445
167617
167816
167760
167789
167748
167667
167542
167415
167400
167478
167668
167732
167715
167677
167620
167598
167609
167576
167624
167565
167575
167524
167522
167581
167535
167554
167749
167654
167669
167653
167677
167747
167649
167623
167684
167630
167652
167674
167806
167758
167739
167771
167748
167795
167756
167797
167840
167773
167781
167815
167900
167900
167800
167853
167861
167901
167943
167853
167833
167862
167841
167810
167790
167867
167855
167829
167881
167875
167935
167886
167771
167794
167789
167866
167889
167866
167848
167873
167873
167890
167898
167854
167727
167738
167722
167794
167904
167988
167937
167839
167753
167718
167742
167799
167774
167763
167789
167752
167832
167844
167851
167876
167902
167926
167840
167745
167680
167618
167623
167705
167698
167707
167698
167766
167878
167945
167879
167825
167804
167806
167829
167827
167729
167782
167724
167684
167719
167662
167738
167737
167849
167900
167833
167862
167841
167796
167778
167779
167825
167897
168014
168018
167989
167890
167802
167738
167778
167822
167859
168021
168031
167898
167772
167823
167866
167947
168124
167934
167874
167919
167935
167954
167894
167877
167924
167935
167957
167868
167871
167827
167861
167831
167725
167792
167888
167925
167861
167899
167885
167910
167872
167823
167735
167670
167711
167803
167927
167853
167830
167799
167726
167741
167728
167761
167848
167865
167801
167680
167676
167708
167770
167843
167807
167826
167849
167804
167808
167729
167719
167712
167745
167797
167794
167780
167823
167750
167718
167860
167881
167763
167852
167884
167849
167867
167841
167862
167930
167795
167759
167808
167722
167736
167842
167853
167869
167774
167857
167851
167832
167820
167839
167767
167761
167826
167897
167876
167876
167745
167708
167748
167701
167738
167783
167883
167881
167875
167821
167877
167828
167842
167847
167841
167825
167856
167848
167797
167699
167692
167780
167802
167773
167691
167614
167696
167804
167752
167720
167698
167674
167670
167733
167763
167882
167922
167901
168000
167977
167949
167977
167931
167906
167851
167985
168091
167958
167964
167860
167710
167616
167596
167489
167351
167305
167344
167323
167352
167329
167266
167265
167338
167415
167484
167511
167565
167683
167666
167662
167610
167658
167650
167691
167679
167686
167716
167782
167752
167665
167697
167752
167803
167813
167776
167751
167807
167820
167793
167670
167636
167715
167636
167782
167862
167892
167908
167938
167850
167772
167757
167714
167673
167701
167712
167785
167849
167878
167820
167844
167756
167849
167848
167872
167866
167771
167799
167841
167878
167838
167701
167810
167767
167783
167814
167765
167795
167824
167791
167804
167723
167763
167803
167812
167846
167846
167875
167924
167981
167927
167874
167827
167797
167776
167779
167868
167926
167943
167939
167894
167833
167989
168028
168008
167957
167828
167820
167875
167894
167896
167843
167795
167798
167750
167778
167846
168018
167869
167834
167798
167729
167722
167713
167706
167679
167657
167653
167679
167640
167592
167547
167693
167758
167702
167646
167725
167655
167699
167806
167727
167580
167570
167629
167677
167691
167708
167670
167619
167624
167648
167703
167758
167670
167698
167700
167621
167691
167766
167871
167763
167760
167795
167785
167806
167786
167739
167730
167779
167824
167814
167814
167811
167844
167828
167881
167876
167871
167956
167961
168002
167948
167914
167909
167883
167882
167816
167837
167921
168019
168038
167906
167883
167887
167861
167884
167916
167903
167891
168041
168000
167861
167905
167899
167926
167907
167892
167956
167913
167913
167856
167747
167844
167927
167890
167870
167889
167880
167902
167847
167746
167668
167657
167785
167821
167856
167910
167994
167962
167888
167870
167791
167729
167719
167729
167829
167832
167884
167871
167828
167820
167733
167786
167813
167809
167819
167853
167859
167880
167848
167805
167776
167846
167874
167872
167782
167793
167822
167861
167909
167944
167933
167871
167843
167907
167890
167845
167871
167919
167975
167984
167864
167832
167889
167887
167863
167975
167980
167957
167935
167940
167968
168017
168000
167943
167935
167966
168035
168065
168038
167976
167934
167931
167942
167981
168096
168020
167979
167989
167980
168012
168059
167976
167957
167947
167960
167978
168064
168048
167991
167929
167949
167924
167909
167960
168019
168023
167965
167963
167957
167964
167926
167949
167978
167989
167952
167900
167963
167960
168018
168057
167936
167810
167847
168003
168042
168003
167931
167978
167974
167952
167918
167936
167933
167900
167919
167942
167975
167982
168074
168070
167851
167748
167850
167975
168002
167991
168012
167999
167941
167937
167971
168061
168047
167968
167893
167868
167921
167981
167994
167937
167969
168069
168035
167954
168003
167947
168022
168009
168032
168157
167949
167909
167972
167974
167903
167798
167742
167812
168018
168181
168095
168075
168070
168061
167987
167959
167914
167869
167832
167841
167797
167796
167773
167863
167958
168005
168056
168016
168013
168006
167973
167998
167938
167935
168059
168147
168209
168159
168167
168094
167929
167858
167784
167626
167492
167452
167489
167425
167382
167325
167249
167312
167302
167297
167359
167335
167481
167563
167532
167546
167403
167465
167492
167608
167638
167627
167697
167683
167585
167513
167521
167625
167579
167538
167549
167534
167589
167629
167542
167576
167491
167534
167552
167594
167604
167518
167556
167506
167498
167481
167432
167448
167442
167403
167365
167321
167414
167517
167661
167630
167550
167526
167490
167473
167428
167389
167410
167412
167429
167334
167357
167413
167405
167462
167513
167370
167396
167450
167400
167395
167353
167387
167456
167358
167332
167193
167151
167436
167633
167568
167438
167472
167436
167439
167446
167355
167406
167443
167454
167423
167342
167353
167346
167368
167405
167334
167399
167457
167396
167442
167385
167320
167253
167405
167405
167349
167381
167314
167314
167267
167176
167102
167110
167151
167219
167158
167206
167181
167170
167143
167034
166935
166958
166983
167018
167059
167179
167098
166998
166927
166898
166889
166784
166900
167067
166926
166884
166915
166897
166914
166825
166772
166714
166758
166763
166857
166909
166899
166902
166882
166826
166911
166898
166816
166760
166756
166824
167050
167095
166998
166908
166895
166861
166888
166885
166911
167104
167115
167070
167004
166941
166982
166949
166845
166875
166920
167000
166992
167039
166994
166978
167063
167023
166947
166917
166964
167011
167017
166971
166946
166946
166939
167019
166976
166917
167002
167015
166934
166902
166909
166936
167029
167099
167053
166992
166957
166941
166995
167025
166963
166887
166949
166989
166967
166948
166885
166855
166891
166922
166939
166945
166852
166851
166900
166834
166910
166854
166913
166994
167048
166929
166890
166922
166989
167018
166885
166981
166980
166978
166970
166934
166879
166827
166912
166957
166966
167031
167044
166973
166931
167022
167053
167024
166950
166877
166836
166768
166786
166792
166963
167138
167243
167172
167098
167063
167031
167104
167098
167042
166975
167009
166975
167043
167107
167054
166946
166892
166951
166984
167058
167048
167128
167215
167100
166952
166934
167008
166966
167085
167076
166951
166958
166972
167021
167048
167070
167050
166978
167024
167031
166992
167047
166996
167006
167037
166993
167026
167049
166990
166994
166941
166959
166922
166961
166943
166889
166940
167040
167012
166932
166945
167008
167107
167100
167002
166962
167012
167085
167066
166963
166984
167027
166977
166892
166966
167029
167245
167211
167047
167089
167115
167139
167106
167007
166954
166995
167081
167022
166972
166962
166909
167056
167110
167016
166934
166915
166963
166965
166946
166976
167005
166981
166929
166924
166905
166932
167040
167107
167025
167004
166980
167044
167068
166977
167016
166917
166959
166894
166886
166960
167086
167081
166901
166869
166871
166863
166906
166969
167002
166940
166852
166886
167010
167154
167208
167072
167144
167233
167267
167268
167136
167172
167107
166986
166895
166675
166606
166619
166503
166582
166488
166466
166444
166448
166474
166450
166501
166577
166560
166606
166658
166808
166855
166841
166766
166723
166768
166802
166804
166797
166690
166653
166605
166705
166765
166790
166847
166886
166950
166869
166841
166850
166749
166731
166741
166730
166761
166699
166698
166727
166811
166851
166846
166859
166833
166770
166780
166786
166763
166743
166727
166753
166844
166878
166834
166789
166846
166821
166892
166920
166799
166714
166648
166659
166636
166590
166719
166922
166912
166878
166756
166760
166793
166773
166740
166690
166695
166781
166953
166934
166841
166882
166804
166733
166779
166751
166754
166822
166740
166761
166750
166876
166966
166913
166854
166823
166846
166833
166812
166826
166817
166896
166783
166713
166792
166780
166809
166794
166798
166786
166624
166587
166619
166644
166645
166618
166613
166662
166661
166655
166631
166620
166552
166504
166418
166390
166376
166346
166401
166441
166422
166416
166425
166326
166348
166332
166455
166453
166410
166327
166284
166266
166224
166210
166158
166243
166349
166314
166308
166336
166246
166291
166220
166215
166246
166242
166328
166349
166351
166297
166246
166295
166358
166327
166322
166291
166337
166336
166375
166344
166270
166242
166306
166425
166508
166433
166303
166330
166403
166435
166390
166416
166411
166469
166433
166308
166310
166371
166460
166390
166360
166371
166369
166387
166415
166361
166444
166423
166367
166304
166264
166410
166397
166242
166256
166265
166297
166264
166245
166265
166255
166388
166347
166361
166345
166234
166218
166225
166324
166400
166365
166368
166309
166219
166190
166106
166155
166287
166250
166290
166383
166289
166154
166122
166197
166277
166344
166300
166328
166271
166163
166143
166203
166320
166341
166234
166239
166241
166274
166301
166244
166258
166252
166233
166157
166256
166362
166372
166471
166409
166333
166329
166214
166249
166281
166224
166214
166302
166360
166441
166431
166393
166381
166305
166306
166322
166329
166351
166353
166282
166243
166293
166305
166280
166389
166460
166504
166514
166451
166412
166359
166326
166329
166346
166380
166355
166490
166443
166396
166412
166387
166510
166562
166429
166362
166310
166393
166426
166416
166430
166406
166416
166395
166330
166378
166327
166349
166404
166399
166278
166312
166440
166460
166401
166385
166333
166359
166423
166456
166498
166462
166464
166462
166417
166391
166329
166328
166319
166390
166546
166614
166579
166483
166432
166368
166313
166417
166432
166427
166385
166363
166365
166322
166323
166322
166449
166482
166507
166458
166444
166402
166464
166475
166447
166377
166312
166471
166534
166442
166449
166398
166440
166509
166535
166518
166448
166398
166418
166463
166557
166554
166538
166569
166612
166608
166530
166499
166604
166657
166652
166637
166669
166772
166887
167021
167035
166915
166939
166930
166858
166824
166846
166793
166616
166609
166467
166384
166372
166388
166408
166384
166318
166249
166202
166265
166372
166529
166574
166545
166526
166579
166710
166761
166787
166759
166759
166835
166814
166829
166830
166787
166796
166757
166901
166900
166792
166872
166847
166816
166845
166896
166934
166922
166930
166857
166734
166799
166920
167090
167389
167235
167104
167075
167062
167059
167057
167115
167187
167106
167130
167119
167155
167138
167128
167116
167070
167104
167098
167125
167160
167166
167147
167205
167144
167105
167068
167074
167083
167168
167088
167098
167169
167230
167247
167123
167175
167346
167546
167443
167335
167325
167336
167262
167328
167432
167413
167355
167343
167448
167451
167498
167488
167458
167419
167421
167419
167347
167363
167503
167518
167501
167571
167502
167478
167443
167362
167402
167467
167502
167465
167392
167437
167529
167527
167484
167348
167427
167491
167436
167490
167507
167571
167532
167458
167419
167391
167427
167369
167399
167503
167444
167383
167366
167410
167394
167279
167230
167259
167369
167493
167492
167503
167365
167319
167339
167314
167434
167514
167410
167460
167475
167516
167502
167523
167454
167449
167456
167497
167435
167468
167460
167552
167670
167705
167624
167537
167561
167563
167537
167552
167589
167604
167677
167630
167625
167528
167451
167562
167684
167756
167663
167737
167795
167733
167639
167562
167569
167611
167583
167719
167734
167745
167696
167698
167714
167642
167626
167639
167662
167790
167822
167752
167699
167608
167575
167591
167625
167792
167724
167719
167723
167737
167745
167757
167815
167770
167725
167795
167847
167858
167746
167753
167825
167813
167654
167534
167597
167804
167879
167839
167710
167701
167764
167789
167832
167772
167693
167737
167724
167650
167629
167715
167722
167756
167796
167718
167742
167853
167822
167866
167841
167806
167774
167841
167855
167814
167825
167798
167733
167705
167651
167765
167891
167954
167845
167733
167813
167942
167905
167868
167818
167820
167826
167769
167779
167838
167910
167893
167953
167920
167847
168002
168024
167941
167925
167871
167882
167904
167992
168006
167996
167998
168063
167993
167943
167938
168051
168020
168094
168134
168043
168023
167944
167969
167984
167922
168005
168181
168032
167869
167929
168116
168223
168227
168156
168049
168102
168140
168102
168099
168051
168115
168051
168055
168100
168080
168128
168131
168198
168201
168122
168125
168155
168139
168146
168078
168120
168020
167898
167982
168103
168255
168259
168241
168162
168056
168072
168087
168089
168029
167985
168094
168176
168165
168109
168006
167966
167938
167935
168003
167948
168005
168113
168168
168032
167997
168050
168022
168071
168120
168099
168171
168131
168139
168106
168059
168129
168168
168179
168297
168342
168365
168299
168334
168353
168177
168078
168003
167922
167859
167768
167747
167659
167544
167499
167492
167534
167472
167605
167725
167706
167779
167948
167984
167997
167908
167926
168025
168041
168071
168053
168119
168122
168083
167982
167876
167899
167955
167978
168151
168095
168117
168145
168069
167925
167939
167992
167988
167978
167972
168085
168130
168105
168066
167988
167976
167961
167970
167997
168100
168170
168188
168207
168152
168136
168113
168114
168074
168084
168086
168131
168211
168181
168050
168014
167952
167961
168199
168292
168281
168262
168293
168305
168267
168138
167977
168056
168240
168320
168308
168345
168264
168255
168288
168264
168232
168228
168213
168296
168397
168411
168383
168335
168312
168338
168358
168393
168348
168352
168355
168348
168333
168330
168282
168305
168214
168218
168303
168508
168480
168401
168448
168427
168407
168325
168319
168336
168356
168375
168453
168358
168349
168389
168362
168246
168202
168103
168160
168268
168263
168280
168278
168248
168194
168147
168083
168074
168252
168300
168239
168163
168262
168363
168304
168265
168168
168189
168199
168231
168246
168164
168066
168034
168171
168334
168346
168245
168208
168222
168275
168267
168269
168243
168277
168261
168038
167902
167922
168140
168305
168371
168385
168407
168278
168285
168258
168238
168230
168212
168216
168251
168401
168494
168392
168338
168289
168307
168272
168237
168248
168230
168306
168290
168237
168211
168162
168321
168366
168321
168303
168251
168252
168256
168323
168297
168235
168334
168353
168255
168194
168156
168197
168289
168331
168268
168092
168090
168249
168222
168204
168212
168240
168258
168313
168257
168202
168209
168203
168172
168118
168030
168049
168139
168111
168230
168251
168219
168222
168172
168216
168134
168138
168122
168099
168029
168033
168104
167994
167986
167984
168086
168216
168164
168100
168059
168089
168034
167948
167983
167954
167968
168020
167985
167956
168001
167988
168024
168002
167941
168013
167958
168002
168001
167942
167923
167846
167903
168029
167969
167972
167877
167930
167929
167946
167920
167926
167917
167937
167980
167895
167755
167889
168013
168008
167968
167832
167839
167863
167745
167800
167836
168022
168031
167898
167833
167828
167859
167865
167839
167778
167698
167845
167925
167935
167922
167806
167744
167746
167719
167770
167755
167879
167986
167933
167857
167745
167725
167741
167722
167733
167752
167754
167704
167720
167694
167588
167606
167554
167603
167783
167761
167688
167696
167727
167699
167628
167639
167597
167614
167786
167851
168068
168086
167979
167864
167788
167758
167745
167692
167642
167665
167694
167694
167573
167507
167350
167291
167296
167257
167263
167279
167311
167336
167375
167370
167381
167430
167475
167531
167613
167572
167705
167786
167737
167745
167718
167654
167642
167596
167600
167762
167916
167902
167871
167822
167673
167651
167638
167692
167657
167681
167723
167840
167778
167627
167657
167802
167813
167761
167769
167713
167721
167751
167807
167681
167670
167674
167740
167735
167754
167696
167715
167712
167724
167684
167635
167670
167642
167626
167632
167548
167661
167721
167732
167704
167654
167690
167748
167769
167777
167794
167790
167726
167770
167716
167621
167615
167643
167665
167675
167747
167804
167800
167778
167696
167402
167291
167208
167134
167079
167074
167101
167230
167307
167255
167179
167171
167085
167111
167182
167200
167169
167231
167218
167188
167199
167258
167258
167239
167255
167229
167184
167138
167158
167102
167047
167024
167051
167138
167138
167133
167184
167312
167331
167200
166994
166892
166913
167076
167192
167103
167064
166916
166885
166994
167025
167140
167132
167040
166992
167008
167043
167043
167009
166896
166883
166913
166979
167006
166925
166931
166898
166866
166917
166945
166926
166818
166755
166765
167040
167098
167018
167090
167089
167133
167003
166981
166974
166923
166801
166914
167028
167037
167037
166957
166954
167079
167070
167048
167002
166905
166941
166961
166923
167003
167040
167083
167068
166973
166992
167065
167026
167008
166944
166884
166902
167020
167048
166966
166931
166914
166938
166871
166802
166738
166677
166746
166886
166962
166880
166763
166954
167023
166989
166926
166796
166756
166723
166660
166691
166740
166883
166914
166852
166834
166802
166775
166833
166853
166844
166809
166863
166834
166601
166496
166411
166641
166958
166983
166861
166719
166736
166809
166855
166806
166754
166759
166677
166709
166787
166825
166817
166755
166807
166851
166774
166740
166729
166783
166845
166817
166853
166934
166973
166944
166763
166778
166763
166917
167060
166914
166854
166890
166971
166998
166933
166875
166847
166799
166743
166798
166953
166889
166919
167031
166990
166938
166920
166844
166819
166823
166878
166950
167102
167124
166889
166865
166942
167018
166938
166944
166965
166935
166967
167080
167016
167012
167002
166952
166956
166919
166938
167067
167127
167209
167156
167090
167163
167221
167290
167324
167382
167357
167375
167388
167282
167284
167260
167231
167253
167109
167107
167140
167103
167152
167071
166900
166876
166841
166884
166863
166929
166940
166916
166956
166966
167005
167111
167125
167156
167163
167188
167222
167258
167217
167222
167283
167295
167360
167392
167344
167411
167472
167434
167370
167332
167432
167387
167321
167402
167353
167357
167459
167448
167457
167567
167589
167712
167626
167514
167532
167661
167657
167637
167619
167540
167584
167530
167613
167669
167630
167696
167697
167695
167723
167710
167701
167683
167639
167646
167625
167754
167902
167728
167637
167603
167699
167692
167687
167634
167627
167644
167686
167775
167831
167819
167874
167822
167756
167717
167693
167681
167629
167761
167770
167782
167797
167764
167874
167868
167797
167742
167760
167816
167822
167717
167698
167674
167669
167644
167649
167625
167630
167649
167647
167698
167713
167644
167592
167535
167506
167558
167665
167697
167625
167529
167450
167420
167378
167357
167424
167529
167534
167543
167508
167444
167399
167364
167316
167380
167289
167454
167433
167297
167259
167239
167309
167467
167445
167326
167293
167431
167523
167481
167514
167362
167382
167439
167311
167247
167255
167366
167490
167514
167515
167513
167444
167435
167394
167357
167335
167386
167327
167328
167402
167387
167447
167349
167298
167344
167424
167387
167306
167214
167238
167357
167408
167471
167427
167299
167254
167246
167192
167278
167423
167478
167418
167301
167209
167262
167293
167458
167600
167532
167379
167229
167199
167291
167415
167379
167308
167358
167309
167275
167332
167334
167296
167237
167225
167192
167210
167303
167371
167360
167289
167261
167234
167152
167172
167282
167359
167334
167312
167321
167351
167331
167332
167268
167161
167115
167057
167118
167228
167258
167361
167340
167355
167296
167304
167229
167243
167224
167200
167205
167262
167286
167207
167296
167348
167301
167196
167105
167082
167291
167382
167271
167197
167281
167259
167145
167135
167176
167175
167170
167161
167092
167135
167199
167268
167310
167299
167246
167188
167145
167134
167029
167073
167178
167260
167349
167346
167318
167271
167239
167236
167171
167160
167192
167163
167149
167137
167175
167193
167185
167171
167143
167136
167131
167083
167073
166996
167029
167073
167171
167258
167170
167159
167113
167178
167087
166979
167117
167126
167229
167187
167151
167215
167084
167032
167052
167032
167142
167174
167153
167162
167041
166995
167075
167121
167119
167296
167207
167068
167026
167074
167154
167193
166975
166998
167072
167049
167248
167369
167383
167371
167312
167361
167370
167396
167444
167327
167372
167330
167282
167273
167414
167425
167220
167117
167056
166969
166946
166751
166713
166766
166757
166817
166760
166762
166705
166795
166960
166974
166968
166886
166946
167051
167145
167133
167070
166970
167048
167151
167273
167098
166996
167046
167026
167147
167238
167167
167142
167128
167182
167197
167119
167173
167235
167217
167111
167085
167108
167138
167121
167226
167201
167179
167214
167164
167120
167106
167094
167188
167307
167272
167238
167235
167204
167099
167200
167217
167185
167181
167168
167236
167172
167152
167156
167156
167116
167049
167090
167187
167132
167152
167115
167150
167136
167098
167113
167099
167191
167188
167231
167224
167174
167209
167233
167317
167114
167177
167242
167318
167284
167169
167078
167041
167022
166954
167080
167155
167197
167238
167122
167270
167257
167235
167205
167194
167163
167109
167069
167025
166998
166997
167053
167169
167172
167227
167221
167167
167167
167146
167103
167081
167054
167020
166917
166892
166958
167064
167163
167128
167174
167116
166952
166969
166985
167009
166965
166882
166950
166948
166930
166994
167058
167163
167118
167040
167043
166952
166960
167032
167069
167021
166998
167158
167085
167082
167050
166984
166956
167034
167169
167218
167219
167242
167130
167171
167073
167053
167115
167085
167070
167113
167139
167201
167128
167087
167109
167107
167201
167169
167136
167071
167039
167245
167277
167251
167228
167186
167240
167258
167200
167183
167205
167312
167238
167204
167266
167250
167264
167329
167188
167233
167218
167160
167062
166816
166781
166865
167267
167472
167526
167444
167253
167231
167147
167138
167149
167091
167040
167062
167130
167160
167216
167148
167085
167062
167035
167029
167115
167148
167073
166937
166887
166964
167058
167084
167053
167044
167044
167097
167020
166943
166950
167020
167093
167140
167022
167040
167054
166994
166996
167030
166919
166895
166976
166869
166855
166886
166946
166975
166970
167023
167051
167046
166949
166903
166932
166912
166950
167041
167062
167026
166916
166924
166990
166965
166949
166900
166926
167003
166913
166922
166923
166960
166908
166810
166850
166856
166940
166947
166981
166968
166867
166973
166999
166922
167054
167062
167066
167069
167058
167064
167019
167035
167083
167029
166979
166803
166761
166715
166847
167078
167118
167136
166910
166883
166931
166849
166867
166892
166862
166803
166738
166734
166752
166760
166808
166717
166798
166768
166735
166731
166648
166573
166551
166595
166644
166557
166554
166608
166598
166498
166436
166591
166718
166724
166535
166431
166573
166567
166493
166562
166583
166516
166393
166431
166372
166459
166681
166761
166729
166637
166494
166546
166543
166470
166475
166367
166367
166393
166322
166320
166459
166580
166666
166635
166672
166642
166642
166664
166699
166664
166622
166601
166637
166608
166610
166545
166532
166472
166401
166329
166306
166192
166068
165966
165946
165889
165836
165792
165829
165954
166071
166188
166097
166059
166047
166103
166171
166285
166356
166200
166165
166418
166403
166334
166361
166300
166285
166258
166212
166164
166166
166258
166253
166266
166236
166143
166162
166279
166410
166388
166231
166253
166250
166216
166209
166179
166200
166247
166292
166190
166195
166243
166181
166294
166276
166320
166314
166134
166183
166162
166128
166118
166056
166068
166122
166149
166171
166140
166116
166138
166132
166163
166168
166138
166113
166073
166009
166019
166081
166105
166138
166202
166235
166147
166119
166073
166135
166107
166129
166108
165958
166027
166051
166077
166102
166085
166089
166047
165969
165960
166018
166118
166185
166248
166096
166018
166015
166000
165981
166013
166136
166093
165964
165963
166019
165972
165941
165881
165853
165856
165870
165976
165949
165875
165881
165848
165884
165862
165812
165917
165876
165837
165783
165780
165831
165908
165959
165968
165888
165825
165778
165859
165883
165955
165786
165717
165798
165745
165851
165934
165925
165844
165786
165775
165788
165792
165739
165731
165748
165736
165806
165791
165820
165794
165839
165793
165877
165845
165849
165841
165837
165847
165842
165907
165922
165853
165821
165800
165856
166008
165970
165899
165911
165878
165802
165740
165758
165812
165842
165992
165919
165895
165859
165792
165829
165809
165787
165832
165853
165835
165784
165672
165769
165852
165776
165827
165861
165927
165977
165882
165819
165828
165841
165805
165744
165754
165863
165938
165853
165841
165899
165894
165758
165688
165711
165698
165766
165822
165881
165910
165872
165808
165839
165913
165804
165757
165759
165748
165731
165741
165695
165749
165756
165798
165846
165755
165742
165870
165910
165795
165784
165731
165791
165751
165798
165769
165763
165737
165886
165923
165746
165743
165736
165650
165627
165593
165729
165816
165729
165792
165880
165782
165705
165754
165785
165722
165754
165774
165824
165793
165711
165760
165802
165804
165742
165724
165697
165699
165776
165804
165738
165736
165677
165700
165709
165721
165802
165798
165786
165761
165811
165869
165836
165875
165858
165841
165842
165858
165767
165862
165862
165919
166032
165918
165874
165837
165871
165911
165898
165771
165763
165819
165740
165727
165869
165981
166048
165951
165921
165956
165922
165945
165971
165978
165944
165917
166007
165844
165838
165932
165901
165960
165993
165874
165842
165813
165854
165888
165945
165803
165765
165822
165879
165868
165825
165872
165895
165865
165887
165894
165970
165905
165762
165764
165803
165882
165804
165678
165650
165781
165952
165972
165904
165843
165845
165820
165857
165792
165790
165762
165717
165856
165898
165872
165797
165753
165847
165986
166142
166187
166192
166147
166089
166011
165961
165870
165958
166024
165875
165779
165743
165733
165664
165505
165436
165371
165380
165389
165448
165408
165377
165494
165535
165437
165528
165523
165596
165679
165689
165762
165737
165692
165730
165754
165688
165724
165779
165750
165734
165804
165856
165836
165849
165811
165787
165683
165721
165774
165767
165768
165682
165703
165733
165767
165802
165724
165737
165772
165736
165760
165737
165868
165860
165811
165815
165709
165683
165748
165814
165803
165687
165706
165827
165808
165848
165800
165806
165804
165775
165825
165896
165884
165761
165830
165812
165767
165781
165767
165769
165808
165866
165903
165899
165859
165810
165689
165770
165829
165823
165815
165751
165793
165896
165969
165911
165815
165897
165954
165894
165930
165910
165959
165854
165819
165710
165610
165783
165924
165990
165945
165915
165924
165894
165820
165763
165723
165820
165811
165727
165811
165790
165816
165850
165756
165706
165767
165700
165776
165865
165946
165848
165817
165735
165694
165732
165619
165690
165737
165758
165902
165816
165776
165796
165786
165819
165739
165729
165674
165769
165754
165673
165665
165691
165657
165632
165704
165834
165840
165840
165799
165732
165726
165700
165666
165708
165827
165846
165849
165906
165766
165746
165865
165838
165814
165795
165715
165773
165896
165972
165989
165892
165732
165720
165825
165875
165923
165915
165840
165813
165742
165727
165808
165907
165892
165831
165861
165900
165853
165703
165769
165865
165934
165963
165968
165889
165852
165830
165849
165865
165844
165841
165906
165897
165801
165759
165786
165884
165855
165929
165901
165831
165907
165984
165904
165875
165769
165849
165845
165844
165847
165776
165838
165883
165927
165824
165715
165787
165878
165936
165907
165804
165744
165870
165865
165789
165728
165839
165775
165754
165836
165818
165808
165804
165815
165912
165830
165844
165857
165834
165825
165807
165870
165907
165905
165883
165756
165733
165766
165852
165891
165907
165923
165914
165910
165882
165743
165749
165720
165726
165802
165908
166013
166027
165998
165929
165852
165920
165878
165891
165844
165766
165812
165890
165903
165879
165782
165868
165872
165880
165935
165917
165902
165935
165931
165914
165889
165892
165870
165890
165848
165749
165740
165740
165855
165920
165945
165973
165914
165829
165851
165865
165846
165872
165929
165861
165776
165851
165990
166064
166007
165878
165825
165866
165859
165841
165815
165780
165801
165799
165899
165904
165930
166001
165947
165929
165861
165741
165740
165736
165640
165727
165914
166008
166038
165959
165870
165842
165815
165749
165825
165851
165857
165910
165856
165807
165861
165949
165939
165852
165814
165756
165830
165802
165788
165723
165715
165822
165773
165809
165851
165811
165815
165773
165855
166012
165905
165913
165964
165936
165960
165969
166077
166119
166039
166018
166017
165951
165863
165717
165584
165477
165435
165431
165411
165463
165464
165402
165356
165325
165355
165399
165444
165451
165461
165512
165428
165486
165655
165730
165779
165708
165690
165680
165693
165653
165561
165653
165628
165630
165610
165625
165754
165886
165835
165696
165541
165670
165752
165825
165758
165696
165709
165726
165675
165657
165621
165625
165702
165721
165769
165750
165676
165669
165593
165655
165629
165727
165865
165882
165829
165668
165695
165729
165836
165817
165728
165730
165717
165691
165609
165737
165893
165798
165772
165805
165685
165684
165708
165649
165626
165589
165668
165836
165851
165849
165910
165927
165855
165791
165796
165828
165888
165856
165981
165887
165770
165894
165941
165879
165769
165732
165819
165908
165974
165887
165818
165762
165744
165837
165848
165846
165795
165587
165390
165340
165255
165284
165371
165484
165460
165387
165459
165458
165445
165443
165435
165369
165263
165234
165310
165394
165503
165533
165544
165464
165489
165531
165475
165453
165478
165457
165467
165468
165489
165465
165504
165577
165589
165593
165650
165583
165604
165541
165470
165473
165510
165593
165660
165665
165628
165613
165696
165664
165682
165698
165575
165604
165623
165626
165586
165610
165626
165621
165763
165762
165679
165676
165645
165666
165791
165864
165862
165811
165753
165716
165644
165640
165677
165719
165683
165691
165675
165755
165887
165880
165722
165681
165668
165610
165658
165617
165716
165698
165653
165607
165568
165762
165745
165824
165828
165759
165723
165750
165743
165682
165637
165666
165703
165643
165646
165697
165745
165702
165699
165679
165691
165728
165679
165761
165665
165615
165587
165622
165744
165821
165762
165732
165751
165848
165782
165634
165623
165713
165766
165742
165690
165762
165808
165868
165867
165773
165776
165743
165710
165708
165615
165625
165650
165702
165780
165713
165744
165727
165716
165770
165696
165658
165705
165753
165773
165702
165743
165782
165699
165759
165670
165704
165804
165834
165894
165879
165865
165855
165838
165746
165717
165744
165734
165660
165672
165624
165808
165844
165927
165856
165784
165799
165730
165786
165810
165783
165734
165709
165744
165787
165728
165728
165839
165865
165717
165691
165724
165812
165903
165907
165724
165633
165734
165839
165870
165936
165965
165787
165829
165886
165802
165733
165720
165725
165782
165743
165774
165777
165767
165701
165748
165772
165771
165798
165762
165708
165710
165724
165735
165765
165736
165724
165708
165751
165754
165713
165753
165793
165871
165841
165655
165646
165672
165642
165706
165751
165767
165827
165815
165786
165790
165748
165781
165897
165870
165908
166045
166065
166029
166006
166020
165978
165927
165878
165812
165758
165781
165835
165804
165709
165573
165376
165418
165374
165216
165332
165480
165456
165370
165407
165445
165404
165444
165532
165600
165753
165788
165751
165757
165766
165750
165745
165683
165670
165773
165704
165758
165861
165839
165786
165751
165717
165698
165722
165726
165730
165784
165751
165734
165798
165754
165724
165679
165717
165665
165773
165945
165879
165860
165835
165755
165739
165682
165642
165742
165829
165831
165865
165809
165780
165732
165736
165753
165807
165745
165712
165823
165986
165987
165880
165767
165663
165602
165673
165795
165785
165910
165838
165849
165870
165882
165886
165845
165824
165820
165777
165821
165822
165805
165773
165713
165787
165889
165889
165919
165900
165907
165838
165831
165777
165823
165891
165884
165891
165877
165845
165890
165876
165946
165933
165838
165897
165829
165807
165846
165768
165790
165779
165793
165786
165771
165742
165659
165680
165680
165577
165582
165659
165748
165922
165850
165771
165768
165717
165699
165630
165659
165648
165682
165707
165662
165676
165721
165724
165767
165663
165689
165777
165820
165857
165714
165666
165626
165628
165724
165701
165654
165642
165608
165570
165688
165784
165934
165985
165808
165691
165766
165759
165796
165823
165788
165803
165749
165712
165563
165536
165716
165898
165983
165920
165787
165769
165797
165803
165764
165739
165846
165910
165883
165875
165780
165744
165682
165680
165666
165791
165889
165917
165957
165966
165919
165853
165848
165808
165754
165733
165773
165854
165938
165905
165783
165830
165859
165777
165839
165826
165753
165719
165775
165827
165842
165859
165849
165884
165808
165732
165704
165726
165733
165817
165839
165823
165813
165896
165848
165750
165774
165784
165778
165746
165681
165692
165728
165682
165777
165817
165745
165776
165769
165795
165741
165684
165654
165737
165862
165790
165773
165653
165715
165859
165835
165786
165754
165657
165576
165598
165690
165720
165756
165737
165672
165774
165857
165787
165735
165661
165718
165845
165915
165852
165743
165758
165698
165629
165696
165714
165842
165942
165966
165890
165779
165791
165766
165692
165629
165610
165752
165960
165883
165798
165790
165816
165808
165761
165695
165597
165640
165710
165840
165915
165841
165867
165762
165708
165786
165796
165800
165742
165721
165786
165785
165735
165722
165767
165691
165565
165660
165619
165822
165881
165695
165640
165625
165625
165572
165488
165549
165587
165650
165666
165656
165629
165691
165597
165504
165524
165629
165597
165637
165704
165683
165692
165587
165557
165545
165547
165617
165566
165512
165545
165596
165614
165654
165665
165583
165519
165582
165755
165889
165896
165804
165746
165792
165736
165835
165903
165865
165843
165847
165846
165821
165799
165762
165711
165679
165671
165527
165396
165293
165209
165140
165209
165320
165271
165179
165131
165223
165316
165396
165472
165456
165480
165543
165576
165648
165636
165545
165571
165618
165691
165677
165654
165601
165631
165606
165546
165615
165700
165696
165722
165696
165708
165724
165691
165670
165643
165675
165673
165627
165670
165638
165725
165755
165794
165772
165773
165720
165687
165688
165770
165823
165868
165724
165767
165774
165730
165782
165802
165783
165794
165726
165735
165733
165916
165934
165729
165717
165762
165716
165687
165684
165706
165769
165720
165714
165685
165730
165722
165795
165885
165765
165825
165856
165759
165708
165650
165742
165727
165779
165849
165799
165739
165726
165766
165738
165746
165821
165807
165795
165741
165689
165721
165813
165856
165777
165749
165746
165767
165784
165755
165636
165719
165858
165777
165751
165775
165685
165691
165792
165800
165703
165655
165667
165594
165591
165646
165785
165849
165757
165724
165714
165706
165692
165708
165670
165565
165634
165700
165653
165616
165625
165668
165672
165655
165623
165646
165762
165660
165691
165699
165630
165683
165633
165609
165671
165651
165701
165750
165668
165652
165722
165711
165601
165590
165781
165675
165724
165704
165763
165734
165679
165683
165697
165768
165834
165821
165695
165656
165633
165621
165595
165597
165669
165687
165604
165572
165747
165829
165829
165773
165669
165716
165717
165674
165610
165563
165556
165582
165624
165750
165842
165742
165576
165593
165587
165536
165568
165674
165716
165689
165539
165584
165691
165702
165623
165622
165625
165642
165659
165661
165615
165615
165662
165587
165443
165415
165518
165543
165677
165718
165630
165622
165654
165643
165625
165440
165529
165630
165582
165601
165596
165547
165514
165496
165470
165485
165567
165655
165704
165582
165565
165621
165585
165532
165495
165400
165427
165514
165468
165538
165593
165711
165718
165531
165553
165529
165512
165509
165651
165672
165587
165458
165413
165498
165567
165547
165533
165557
165560
165593
165498
165537
165560
165563
165610
165589
165614
165601
165598
165558
165571
165635
165635
165553
165552
165475
165466
165531
165630
165695
165609
165550
165526
165557
165532
165570
165547
165553
165570
165516
165449
165544
165683
165692
165611
165587
165576
165470
165539
165511
165386
165435
165463
165546
165552
165409
165481
165464
165453
165466
165431
165445
165422
165415
165457
165451
165498
165464
165444
165470
165375
165387
165471
165547
165408
165343
165312
165359
165489
165403
165385
165423
165498
165495
165507
165405
165436
165545
165545
165548
165544
165589
165560
165592
165519
165550
165749
165848
165799
165724
165604
165537
165457
165410
165337
165270
165230
165058
165023
165049
165001
164990
164970
165048
165004
164985
164940
165075
165131
165270
165323
165370
165370
165322
165289
165220
165188
165235
165342
165427
165527
165495
165407
165360
165297
165251
165282
165344
165413
165411
165391
165450
165508
165424
165373
165283
165339
165357
165391
165388
165361
165264
165250
165329
165358
165281
165209
165221
165208
165217
165256
165359
165374
165361
165305
165259
165226
165238
165327
165364
165264
165273
165263
165221
165282
165221
165271
165258
165201
165072
164820
164777
164711
164710
164768
164812
164721
164784
164739
164796
164713
164717
164670
164683
164826
164796
164733
164627
164686
164722
164811
164891
164867
164840
164797
164707
164775
164855
164943
164864
164813
164768
164781
164732
164679
164715
164752
164789
164959
164898
164872
164827
164802
164707
164616
164603
164722
164845
164923
164940
164872
164852
164776
164729
164719
164712
164759
164741
164781
164746
164687
164712
164770
164793
164910
164855
164799
164767
164855
164872
164741
164719
164755
164739
164762
164816
164784
164781
164889
164868
164882
165026
164930
164901
164947
164916
164877
164878
164942
164944
164882
164976
165072
165056
165023
164909
164902
164913
164859
164962
165060
165029
165046
165043
165069
165013
165019
165061
165014
164905
164930
165042
165139
165159
165150
165050
165047
164947
164974
165069
165058
165118
165127
165037
164991
164995
164986
165029
165034
165020
165065
165165
165047
165056
165003
164939
164972
164989
165027
165048
165025
165070
165046
165059
165055
164974
164964
164917
165012
165065
165045
165024
164993
164980
165015
164890
164902
164983
165074
165102
165059
165054
164981
164905
164863
164842
164913
164931
164963
164988
165027
165008
164989
164943
164973
164895
164852
164832
164863
164843
164831
164880
164877
164880
164955
164829
164873
164830
164872
164930
164917
164963
164930
164851
164816
164790
164831
164872
164815
164825
164813
164941
164929
164896
164801
164760
164788
164786
164814
164950
164863
164975
165022
165006
164904
164883
164939
164947
164849
164790
164752
164803
164820
164956
164959
164839
164861
164882
164884
164836
164877
164967
164927
164903
164888
164799
164791
164872
164923
164858
164817
164839
164783
164809
164855
164858
164803
164744
164659
164621
164640
164838
164922
164904
164760
164714
164792
164774
164776
164843
164744
164701
164709
164745
164736
164726
164832
164791
164776
164834
164766
164764
164703
164703
164729
164707
164697
164726
164747
164747
164716
164818
164934
164931
164935
164975
165017
165054
165045
164974
164886
164895
164842
164785
164719
164804
164786
164593
164424
164398
164232
164248
164230
164255
164308
164295
164312
164389
164465
164520
164614
164711
164681
164616
164620
164595
164656
164657
164684
164779
164746
164712
164652
164707
164637
164606
164730
164784
164726
164654
164616
164603
164642
164683
164762
164748
164690
164724
164714
164818
164729
164603
164542
164563
164601
164605
164700
164752
164744
164737
164743
164754
164732
164685
164648
164609
164743
164844
164822
164842
164746
164737
164761
164764
164735
164626
164681
164749
164824
164794
164707
164689
164733
164747
164761
164631
164619
164685
164813
164872
164706
164811
164841
164873
164868
164737
164672
164664
164723
164804
164798
164781
164785
164862
164894
164842
164854
164782
164757
164739
164696
164695
164712
164697
164778
164823
164844
164760
164730
164682
164768
164830
164702
164678
164696
164745
164747
164677
164608
164486
164355
164463
164612
164787
164761
164663
164678
164640
164593
164568
164573
164576
164641
164635
164468
164460
164488
164468
164527
164584
164597
164634
164698
164661
164619
164584
164452
164480
164460
164450
164494
164580
164611
164600
164584
164428
164372
164436
164523
164649
164597
164611
164677
164651
164599
164477
164529
164530
164541
164508
164329
164442
164539
164640
164608
164563
164628
164595
164606
164622
164577
164536
164556
164543
164535
164484
164485
164531
164522
164469
164481
164518
164530
164544
164543
164512
164479
164417
164349
164373
164359
164598
164679
164544
164513
164453
164360
164373
164470
164450
164466
164576
164541
164521
164529
164469
164407
164361
164454
164476
164456
164472
164472
164412
164447
164445
164497
164438
164346
164324
164289
164373
164462
164387
164338
164274
164310
164322
164280
164282
164276
164328
164367
164249
164321
164299
164384
164342
164290
164327
164359
164303
164304
164302
164243
164166
164207
164199
164189
164256
164277
164292
164291
164302
164288
164148
164177
164183
164251
164286
164280
164318
164288
164257
164235
164133
164163
164178
164217
164301
164262
164294
164181
164180
164205
164196
164176
164184
164208
164170
164151
164196
164185
164165
164149
164010
164058
164186
164269
164177
164195
164237
164234
164254
164175
164063
164110
164191
164380
164390
164270
164253
164225
164222
164221
164217
164291
164239
164224
164243
164264
164257
164263
164236
164224
164151
164178
164213
164097
164066
164068
164191
164197
164250
164303
164138
164076
164030
164105
164134
164077
164049
164085
164043
164028
164159
164154
164077
164086
164080
163990
164022
164018
163980
163928
163910
163992
163957
164007
163965
163945
164005
163985
163922
163916
163938
164006
163956
163877
163978
164065
164181
164289
164191
164156
164042
164099
164273
164282
164225
164132
164094
164088
163968
163841
163750
163781
163677
163498
163488
163537
163503
163498
163561
163570
163569
163641
163591
163600
163673
163675
163800
163869
163855
163870
163890
163976
163923
163971
163909
163796
163826
163908
163933
163938
163875
163870
163878
163915
164011
163947
163900
163882
163883
163957
163988
164002
164007
163925
163920
163954
163989
163945
163991
164046
164017
163923
163807
163859
163871
163925
163989
163940
163999
163995
163985
164115
164098
163981
163943
163893
163980
163984
164001
163958
163893
163985
163993
163999
164031
164037
164047
164049
163989
163962
163920
163884
164035
164085
164031
163913
163875
163966
164070
164062
164014
163969
163912
164063
164070
164061
164125
164132
164127
164067
163986
163999
164044
164014
163987
163915
164112
164099
164059
164000
163892
163919
163936
163990
163960
163833
163862
163974
164025
164079
163972
163910
163762
163863
163976
163952
163863
163839
163932
163964
163891
163860
163842
163887
163859
163863
163876
163828
163794
163802
163862
163879
163841
163849
163818
163836
163930
163955
163918
163879
163846
163713
163729
163771
163858
163842
163752
163757
163825
163832
163822
163762
163797
163915
163935
163934
163989
163969
163870
163821
163747
163702
163711
163750
163814
163793
163851
163870
163863
163795
163822
163877
163891
163868
163739
163779
163862
163921
163922
163821
163728
163735
163808
163896
163880
163888
163790
163776
163789
163862
163854
163843
163761
163709
163849
163807
163851
163861
163921
163837
163808
163762
163762
163780
163762
163710
163715
163655
163589
163698
163715
163783
163817
163791
163828
163751
163770
163770
163702
163605
163592
163642
163604
163661
163747
163822
163751
163728
163800
163787
163622
163601
163651
163638
163658
163623
163676
163662
163642
163593
163623
163771
163801
163722
163693
163669
163687
163675
163681
163762
163701
163778
163713
163719
163697
163656
163651
163661
163685
163699
163593
163604
163520
163608
163758
163704
163849
163827
163785
163775
163644
163621
163603
163593
163569
163523
163593
163655
163659
163713
163677
163660
163660
163651
163677
163616
163671
163692
163661
163680
163617
163620
163608
163642
163643
163638
163627
163564
163568
163581
163596
163588
163565
163542
163526
163565
163644
163653
163581
163584
163538
163638
163625
163553
163539
163448
163438
163487
163543
163575
163531
163568
163583
163497
163472
163470
163475
163434
163389
163415
163448
163466
163543
163535
163528
163341
163399
163430
163496
163627
163557
163477
163449
163425
163453
163392
163343
163309
163328
163430
163395
163425
163487
163444
163405
163382
163510
163530
163510
163578
163563
163490
163564
163588
163597
163595
163588
163471
163436
163519
163322
163207
163203
163149
163117
163021
163042
162964
162825
162798
162813
163058
163153
163159
163090
163055
163120
163184
163242
163299
163255
163231
163332
163326
163294
163249
163250
163240
163247
163206
163158
163253
163304
163242
163327
163306
163320
163300
163334
163342
163305
163305
163406
163403
163241
163188
163252
163331
163292
163234
163153
163206
163251
163308
163234
163131
163246
163295
163376
163355
163291
163154
163137
163224
163262
163271
163307
163249
163339
163372
163265
163300
163307
163324
163336
163177
163131
163119
163240
163276
163167
163187
163177
163263
163377
163251
163255
163329
163290
163447
163429
163269
163226
163201
163187
163209
163282
163339
163305
163248
163216
163265
163268
163259
163204
163258
163386
163378
163310
163267
163222
163264
163275
163275
163296
163269
163347
163278
163209
163154
163170
163202
163193
163187
163124
163099
163180
163230
163145
163069
163088
163163
163179
163127
163125
163137
163193
163231
163190
163136
163088
163094
163101
163136
163084
163037
163095
163148
163189
163153
162956
162955
162958
162946
163011
162898
163031
163094
163069
163105
163076
163078
163074
163032
163056
163000
162928
162854
162824
162970
163266
163224
163100
163089
163064
163012
163009
163013
163136
163081
163009
162962
162891
162915
162997
162945
163109
163200
163159
163155
162991
163001
163001
162992
162993
162938
162937
162972
162898
162855
162773
162825
163001
163088
162985
162900
162974
163021
162980
162915
162852
162880
162902
162895
162837
162700
162734
162881
162975
163076
163054
163026
162996
162906
162818
162734
162829
162905
162963
162912
162866
162819
162741
162757
162824
162816
162766
162751
162743
162741
162759
162825
162802
162860
162806
162740
162705
162665
162697
162802
162777
162653
162692
162664
162626
162567
162672
162771
162819
162816
162789
162734
162663
162621
162590
162539
162625
162682
162609
162525
162469
162635
162724
162798
162795
162675
162654
162648
162679
162634
162594
162602
162625
162616
162618
162584
162540
162571
162720
162848
162833
162724
162593
162592
162581
162561
162559
162667
162661
162647
162635
162649
162586
162572
162595
162600
162713
162778
162804
162835
162708
162657
162676
162629
162618
162605
162641
162642
162606
162560
162507
162603
162620
162629
162602
162501
162480
162492
162554
162676
162734
162752
162662
162594
162494
162481
162556
162524
162521
162513
162547
162525
162503
162616
162601
162518
162509
162529
162626
162725
162613
162533
162426
162479
162511
162427
162484
162537
162459
162456
162518
162625
162600
162631
162643
162518
162553
162684
162813
162840
162924
162801
162712
162647
162667
162689
162752
162670
162525
162380
162332
162286
162243
162216
162036
161923
162027
162114
162087
162118
162130
162226
162242
162271
162317
162318
162387
162451
162442
162492
162491
162473
162455
162465
162453
162241
162177
162317
162580
162822
162759
162623
162545
162490
162515
162384
162447
162533
162422
162389
162448
162516
162512
162510
162527
162421
162446
162506
162520
162473
162428
162469
162516
162539
162497
162395
162435
162477
162511
162497
162477
162486
162433
162426
162419
162358
162459
162509
162538
162436
162367
162367
162465
162514
162523
162484
162491
162478
162435
162476
162576
162557
162517
162337
162351
162408
162497
162438
162533
162681
162647
162630
162633
162625
162591
162542
162521
162516
162550
162404
162371
162568
162674
162586
162530
162474
162522
162489
162472
162455
162408
162496
162523
162463
162471
162405
162424
162463
162476
162383
162345
162324
162287
162359
162356
162314
162365
162467
162437
162389
162390
162350
162332
162352
162324
162315
162298
162243
162291
162381
162306
162354
162322
162285
162359
162320
162364
162373
162308
162215
162164
162275
162335
162254
162157
162042
162095
162250
162341
162290
162195
162131
162094
162097
162223
162336
162388
162317
162307
162315
162288
162229
162206
162258
162191
162106
162178
162231
162258
162234
162234
162309
162267
162203
162205
162192
162327
162336
162301
162243
162217
162261
162277
162221
162158
162221
162233
162356
162538
162488
162308
162276
162278
162219
162256
162262
162230
162276
162278
162222
162249
162283
162257
162209
162256
162193
162204
162322
162321
162290
162257
162315
162312
162245
162269
162163
162103
162124
162122
162160
162193
162302
162419
162312
162226
162242
162287
162284
162272
162281
162166
162178
162077
161979
162108
162184
162267
162268
162280
162255
162204
162170
162224
162293
162217
162175
162203
162178
162141
162083
162093
162161
162195
162201
162117
162027
162084
162030
162038
162147
162213
162254
162244
162200
162101
162073
162095
162119
162161
162255
162135
162214
162242
162139
162099
162129
162086
162090
162193
162188
162180
162128
162067
162033
162000
162077
162230
162167
162152
162136
162055
162169
162246
162142
162105
162024
162119
162249
162283
162213
162151
162178
162194
162155
162105
162058
162161
162159
162168
162117
162043
162120
162131
162091
162197
162179
162204
162196
162226
162171
162070
162068
162072
162151
162226
162293
162276
162191
162200
162188
162139
162168
162130
162071
162029
161988
162039
162156
162305
162265
162171
162159
162159
162124
162122
162017
162021
162081
162107
162194
162194
162183
162117
162008
161996
162045
162157
162186
162215
162148
162058
162131
162101
162064
162064
162053
162127
162148
162171
162349
162242
162254
162301
162321
162326
162280
162251
162248
162244
162322
162380
162349
162245
162046
161949
161960
161963
161921
161880
161821
161738
161626
161642
161669
161669
161642
161694
161742
161740
161706
161783
161921
161947
162019
162018
162030
161993
161959
161960
161979
161922
162018
162060
162023
161947
161896
161951
162097
162110
161982
162034
162160
162128
162065
162086
161981
162006
162035
162056
162013
161986
161997
162184
162182
162084
162038
161938
161914
161909
161841
161864
162041
162154
162125
162061
161999
162037
162097
162089
162110
162036
162018
162021
162097
162034
161950
162031
162068
162059
162006
161965
161989
161952
162046
162110
161954
161929
162013
162097
162033
161961
162047
162128
162120
162123
162014
161906
161899
161885
162054
162180
162178
162144
162061
162069
162004
161998
162065
162064
162076
162073
162065
162087
162097
162056
161933
161968
161990
161991
162090
162095
162111
162036
161972
161933
161925
162038
161996
162014
162074
162003
162060
162074
161945
161863
161926
161937
161985
162035
162014
161986
161965
161923
161902
161823
161797
161949
161956
162047
162074
161952
161982
161950
161993
161889
161796
161878
161998
162046
162033
162089
161984
161956
161901
161897
161905
161872
161922
161892
161911
161853
161914
162000
161961
161890
161851
161822
161856
161930
161954
161930
161972
162028
161938
161918
161885
161884
161833
161862
161777
161816
161983
162019
161985
161909
161864
161848
161799
161817
161902
161903
161922
161947
161918
161861
161802
161800
161795
161833
161940
161841
161824
161869
161884
161880
161932
161950
161913
161859
161854
161772
161809
161889
161905
161882
161758
161684
161672
161634
161694
161752
161765
161813
161912
161852
161694
161654
161725
161795
161773
161759
161759
161739
161742
161661
161623
161644
161732
161804
161751
161650
161627
161640
161726
161794
161790
161790
161730
161739
161712
161691
161694
161763
161781
161725
161657
161679
161689
161639
161583
161591
161826
161729
161734
161723
161687
161756
161721
161712
161731
161727
161727
161670
161697
161703
161689
161691
161719
161711
161771
161772
161776
161734
161684
161635
161642
161651
161705
161769
161761
161723
161694
161715
161773
161700
161630
161650
161696
161724
161775
161760
161856
161822
161727
161753
161724
161792
161782
161690
161710
161618
161630
161666
161732
161721
161705
161662
161591
161656
161808
161808
161732
161659
161595
161560
161550
161582
161765
161789
161756
161612
161582
161620
161583
161669
161869
161889
161660
161656
161654
161586
161608
161565
161575
161677
161750
161741
161657
161604
161717
161702
161729
161680
161603
161548
161533
161593
161617
161611
161648
161671
161866
161979
161933
161862
161775
161812
161808
161806
161770
161743
161858
161831
161647
161536
161443
161348
161298
161174
161158
161134
161319
161295
161186
161248
161245
161275
161294
161262
161341
161410
161518
161627
161610
161657
161567
161611
161588
161541
161558
161487
161569
161583
161672
161650
161570
161627
161612
161563
161487
161508
161541
161589
161603
161567
161523
161567
161573
161550
161528
161457
161525
161573
161616
161612
161541
161541
161556
161572
161559
161506
161586
161625
161588
161536
161477
161504
161629
161544
161474
161448
161515
161608
161689
161620
161493
161468
161462
161449
161451
161476
161534
161537
161488
161537
161479
161573
161578
161583
161645
161625
161563
161503
161442
161415
161450
161600
161497
161554
161605
161626
161550
161506
161516
161487
161522
161599
161586
161574
161572
161444
161524
161580
161575
161567
161467
161450
161480
161568
161549
161459
161472
161544
161554
161558
161522
161422
161334
161314
161504
161609
161605
161622
161377
161305
161235
161329
161430
161455
161469
161456
161441
161452
161425
161406
161396
161335
161292
161253
161250
161178
161210
161349
161370
161287
161241
161219
161168
161194
161247
161217
161247
161249
161257
161269
161172
161247
161214
161206
161287
161236
161337
161385
161316
161278
161196
161236
161212
161239
161210
161189
161219
161251
161340
161324
161227
161250
161230
161221
161261
161239
161207
161216
161250
161279
161152
161157
161111
161220
161274
161261
161262
161298
161283
161266
161227
161271
161254
161259
161300
161275
161344
161286
161193
161116
161056
161158
161336
161272
161267
161220
161247
161283
161207
161178
161140
161165
161179
161219
161208
161129
161084
161104
161198
161251
161195
161177
161193
161291
161312
161179
161221
161298
161309
161339
161254
161320
161214
161140
161137
161293
161438
161417
161408
161405
161343
161325
161360
161494
161495
161516
161607
161599
161598
161648
161603
161604
161568
161419
161401
161436
161470
161419
161378
161414
161343
161411
161414
161423
161418
161466
161393
161367
161316
161307
161317
161373
161384
161352
161257
161297
161369
161386
161398
161309
161303
161350
161292
161220
161227
161247
161279
161329
161376
161307
161301
161295
161263
161298
161443
161409
161367
161317
161295
161270
161282
161428
161435
161353
161292
161279
161331
161335
161344
161278
161163
161186
161300
161292
161293
161213
161243
161228
161178
161198
161205
161336
161371
161276
161269
161171
161174
161225
161204
161227
161156
161217
161267
161272
161234
161228
161215
161200
161290
161235
161166
161059
161023
161132
161286
161318
161225
161212
161206
161175
161165
161182
161235
161260
161330
161382
161312
161265
161282
161369
161378
161385
161399
161493
161451
161401
161428
161393
161376
161251
161158
161104
161001
160874
160861
160913
160915
160832
160737
160800
160845
160862
160887
160860
160899
160919
161052
161081
161173
161189
161102
161104
161158
161186
161164
161153
161118
161185
161195
161185
161180
161168
161209
161235
161093
161009
161068
161269
161302
161311
161239
161200
161247
161255
161270
161236
161198
161240
161320
161373
161275
161185
161219
161179
161093
161075
161187
161372
161487
161386
161333
161187
161167
161188
161180
161143
161124
161214
161264
161192
161186
161222
161252
161252
161214
161179
161212
161267
161354
161285
161268
161316
161243
161176
161210
161207
161213
161204
161103
161108
161132
161378
161423
161292
161251
161309
161369
161280
161369
161381
161235
161239
161256
161232
161201
161179
161255
161179
161224
161245
161302
161306
161276
161228
161161
161070
161101
161178
161310
161176
161114
161192
161232
161348
161303
161146
161153
161144
161124
161091
161084
161066
161033
161008
160959
161026
161054
161031
161101
161044
161054
161096
161169
161137
160965
160960
161006
160979
160980
160970
160911
160851
160980
161189
161190
161055
160969
160931
160892
160893
160948
160985
161050
161059
161009
161021
161017
160948
160904
161010
160955
160955
161031
161060
161042
160986
160999
160953
160967
160958
160934
161052
160996
160958
160920
160976
161055
161089
161023
160954
160923
160955
160915
160968
161021
160987
160972
161030
161001
160926
160914
160934
160865
160855
160899
160922
160953
160935
161004
161015
160912
160893
160926
160932
161046
160891
160927
161049
160997
161020
160884
160864
160944
161011
161085
160993
160952
161000
160973
161005
161009
161031
160978
160965
161003
160938
160934
160887
160886
160984
160938
160986
160993
160949
160934
160836
160890
160994
160913
160874
160906
160902
160835
160880
160930
160970
161008
161016
160812
160775
160720
160806
160812
160743
160841
160991
160971
160907
160925
160903
160832
160853
160799
160757
160889
160883
160883
160858
160851
160864
160836
160836
160831
160871
160879
160881
160876
160950
160944
160888
160726
160655
160722
160832
160848
160882
160905
160878
160943
160949
160965
160784
160755
160829
160771
160799
160909
160952
160977
160989
160864
160873
160900
160856
160854
160758
160779
160815
160772
160809
160819
160897
160817
160731
160820
160896
161013
161089
161025
160975
160888
160837
160830
160800
160783
160842
160819
160893
160891
160890
160835
160869
160835
160838
160854
160837
160891
160890
160833
160810
160665
160713
160757
160797
160890
160811
160833
160836
160863
160867
160744
160754
160726
160708
160719
160700
160806
160813
160757
160719
160676
160771
160818
160738
160702
160686
160720
160746
160748
160776
160758
160825
160832
160905
160927
160873
160908
160953
161074
161020
161036
160981
160894
160780
160742
160615
160592
160522
160413
160339
160431
160481
160525
160392
160267
160282
160335
160349
160417
160500
160469
160540
160518
160538
160556
160494
160532
160605
160679
160815
160756
160705
160626
160623
160593
160556
160547
160628
160698
160700
160730
160577
160475
160572
160667
160603
160619
160666
160624
160516
160472
160594
160681
160749
160753
160661
160613
160588
160581
160699
160767
160611
160609
160616
160496
160555
160774
160692
160667
160712
160697
160681
160580
160614
160547
160568
160648
160659
160631
160637
160615
160602
160566
160493
160480
160620
160753
160747
160674
160620
160629
160642
160669
160659
160592
160587
160671
160720
160715
160799
160790
160684
160577
160525
160598
160681
160809
160838
160770
160739
160670
160702
160633
160614
160557
160412
160440
160573
160691
160793
160807
160770
160733
160703
160653
160534
160433
160478
160526
160562
160603
160662
160588
160511
160453
160541
160673
160670
160695
160615
160603
160692
160605
160493
160479
160480
160526
160596
160598
160604
160594
160564
160589
160455
160428
160386
160506
160597
160698
160648
160548
160633
160603
160570
160572
160528
160521
160568
160586
160543
160529
160623
160617
160531
160650
160554
160553
160612
160641
160640
160581
160593
160433
160494
160518
160510
160588
160648
160554
160570
160552
160473
160401
160483
160539
160557
160631
160600
160555
160488
160496
160552
160508
160501
160491
160544
160576
160605
160547
160523
160480
160508
160552
160403
160455
160488
160559
160545
160549
160525
160471
160577
160574
160519
160486
160441
160468
160472
160475
160500
160486
160515
160474
160457
160459
160399
160451
160539
160545
160523
160446
160442
160457
160392
160376
160394
160448
160370
160384
160440
160360
160384
160376
160397
160404
160361
160430
160373
160366
160370
160375
160408
160563
160483
160390
160331
160332
160264
160314
160375
160461
160556
160472
160422
160410
160342
160460
160511
160569
160442
160346
160421
160485
160485
160411
160339
160273
160252
160305
160444
160513
160483
160356
160416
160350
160385
160362
160400
160420
160380
160469
160554
160444
160390
160285
160241
160349
160380
160431
160440
160395
160368
160324
160333
160357
160430
160490
160538
160467
160436
160371
160372
160339
160359
160300
160274
160499
160554
160493
160429
160303
160322
160372
160413
160420
160286
160207
160242
160329
160377
160465
160453
160330
160254
160285
160274
160335
160246
160240
160321
160314
160252
160206
160280
160304
160304
160335
160411
160444
160343
160309
160311
160255
160207
160198
160111
160111
160196
160228
160296
160288
160219
160149
160166
160205
160169
160216
160262
160284
160291
160252
160300
160379
160431
160449
160392
160399
160442
160363
160320
160304
160204
160146
160160
160130
159989
159780
159775
159905
159895
159748
159719
159742
159754
159715
159786
159814
159889
160009
160069
160009
160029
159966
159943
160155
160242
160223
160126
160183
160144
160081
160061
159994
160015
160009
160156
160171
160159
160243
160182
160117
160140
160122
160086
160011
160009
160043
160009
160080
160171
160144
160064
159981
160030
160001
160079
160063
160099
160125
160152
160075
160036
160095
160083
160091
160108
160052
160053
160057
160039
160063
160123
160083
160023
160026
160064
160067
160049
160104
160060
160031
160038
160033
159938
159983
160008
159954
159941
159993
160013
160113
160128
160129
160185
160122
160152
160202
160169
160131
160075
160013
160074
160102
160144
160208
160156
160177
160104
160058
160098
160164
160132
160085
160024
160000
159888
159973
160122
160123
160093
159954
160008
160084
160024
160062
160036
160067
160072
160010
160053
160008
160040
160048
160005
159938
159867
159892
159868
159880
159897
159821
159840
159856
159850
159887
159841
159844
159864
159823
159846
159871
160009
159957
159916
159839
159778
159793
159870
159957
159945
159743
159817
159850
159789
159825
159824
159869
159788
159733
159817
159931
159939
159906
159844
159799
159680
159754
159839
159854
159842
159898
159933
159876
159796
159794
159732
159825
159915
159859
159786
159790
159861
159880
159880
159809
159758
159800
159812
159876
159884
159871
159853
159779
159737
159800
159821
159825
159812
159822
159849
159822
159849
159809
159793
159849
159733
159768
159818
159803
159761
159701
159830
159838
159782
159773
159741
159733
159677
159765
159821
159818
159846
159847
159734
159617
159633
159677
159715
159775
159797
159769
159722
159697
159635
159695
159637
159642
159701
159780
159753
159728
159717
159758
159775
159699
159615
159739
159725
159731
159694
159656
159839
159873
159812
159760
159702
159722
159663
159663
159803
159744
159675
159628
159706
159701
159782
159806
159791
159774
159696
159670
159781
159795
159741
159619
159625
159704
159808
159929
159777
159689
159780
159743
159679
159581
159646
159808
159790
159757
159803
159820
159833
159786
159737
159714
159727
159692
159696
159749
159956
159961
159800
159761
159762
159758
159756
159719
159727
159777
159727
159655
159693
159748
159815
159871
159667
159577
159607
159679
159760
159818
159742
159731
159782
159648
159584
159558
159547
159564
159603
159640
159782
159821
159743
159762
159703
159676
159593
159547
159622
159618
159624
159577
159608
159605
159599
159681
159666
159548
159504
159634
159831
159704
159597
159555
159553
159641
159708
159795
159814
159714
159691
159696
159760
159790
159845
159897
159838
159811
159822
159854
159742
159730
159720
159620
159501
159498
159439
159277
159247
159257
159244
159181
159155
159166
159110
159152
159237
159309
159270
159357
159551
159605
159531
159505
159501
159493
159526
159508
159520
159513
159472
159514
159503
159450
159451
159521
159540
159560
159677
159588
159590
159637
159589
159510
159518
159498
159469
159472
159470
159452
159473
159425
159440
159615
159641
159702
159697
159585
159505
159471
159502
159522
159543
159541
159439
159421
159417
159464
159696
159652
159613
159579
159542
159546
159494
159509
159510
159527
159551
159510
159449
159406
159413
159440
159586
159670
159632
159611
159657
159686
159601
159558
159552
159550
159569
159562
159517
159482
159557
159529
159631
159660
159687
159652
159586
159587
159585
159648
159607
159551
159542
159560
159611
159572
159535
159529
159625
159653
159644
159551
159555
159533
159602
159587
159471
159476
159469
159500
159567
159615
159633
159613
159626
159587
159516
159528
159514
159529
159545
159441
159443
159369
159435
159576
159530
159439
159525
159529
159543
159534
159484
159518
159487
159490
159398
159395
159346
159371
159517
159554
159530
159526
159515
159539
159490
159571
159450
159376
159468
159500
159574
159512
159455
159490
159486
159467
159464
159419
159500
159546
159590
159508
159514
159469
159412
159490
159428
159313
159350
159363
159356
159469
159650
159615
159480
159467
159494
159504
159464
159462
159474
159370
159284
159277
159314
159420
159472
159532
159514
159451
159477
159515
159468
159397
159310
159395
159475
159501
159438
159348
159357
159318
159290
159306
159369
159516
159422
159413
159384
159384
159365
159397
159380
159354
159312
159330
159253
159244
159368
159335
159271
159354
159365
159302
159222
159241
159281
159310
159319
159339
159372
159323
159247
159245
159201
159363
159330
159362
159348
159233
159312
159322
159293
159321
159325
159289
159231
159256
159148
159147
159325
159422
159336
159243
159274
159325
159306
159294
159270
159214
159311
159321
159310
159262
159230
159184
159127
159163
159243
159430
159464
159315
159244
159170
159148
159199
159242
159284
159265
159263
159297
159315
159306
159277
159130
159124
159111
159060
159180
159279
159351
159422
159401
159251
159148
159139
159119
159076
159076
159124
159214
159242
159245
159204
159244
159199
159212
159284
159280
159254
159251
159219
159227
159234
159137
159148
159098
159109
159199
159223
159252
159223
159184
159155
159088
159094
159083
159099
159102
159002
159044
159165
159092
159109
159011
159150
159155
159132
159091
159038
159060
159109
159045
159152
159060
159015
158981
159054
159038
159033
159149
159175
159165
159141
158975
158933
158979
158977
158992
159080
159141
159195
159228
159094
158956
158965
159041
159074
159141
159173
159323
159313
159379
159344
159315
159276
159203
159134
159141
159077
159213
159107
158932
158834
158730
158728
158702
158654
158579
158640
158680
158660
158688
158692
158665
158689
158604
158633
158732
158902
159191
159145
159113
159086
158992
158932
158869
158836
158900
159042
159076
159135
159118
159049
158941
158869
158937
159045
159023
158976
159004
159057
159060
158958
158884
159004
159081
158978
158985
159063
159086
159010
158873
158870
158792
158892
159060
159175
159099
159052
159064
159050
159015
158973
158898
158974
159108
159092
158994
158969
158983
158905
158924
158925
158948
159145
159128
159072
159069
159020
159004
159002
158948
158957
158898
159002
159070
159039
159036
159095
159244
159254
159092
159027
159041
159061
159045
159009
159065
158999
158999
158987
159034
159103
159084
159001
159004
159070
159078
159013
159049
159016
158942
158941
158877
159037
159061
159011
158977
159029
159077
159063
159044
159009
158956
158984
158952
158999
158954
158902
158912
158967
158932
159000
158972
158944
158916
158907
158854
158869
158994
159056
159064
159081
159001
158897
158884
158874
158927
158961
159017
159030
158936
159023
158916
158889
158926
158892
158944
158926
158940
158994
159021
159097
159024
159050
159010
158981
158947
158965
158982
158890
158896
158909
158838
158805
158864
158975
159038
158987
158994
158932
158913
158903
158872
158907
158909
158847
158911
158941
158976
158919
158883
158826
158719
158865
158885
158900
159022
159012
158970
158920
158867
158840
158740
158765
158735
158834
158928
159016
158980
158886
158871
158844
158868
158920
158765
158734
158747
158813
158784
158759
158766
158899
158913
158958
158880
158801
158842
158806
158847
158752
158776
158790
158806
158773
158737
158773
158774
158855
158894
158912
158901
158893
158810
158873
158840
158886
158836
158774
158783
158827
158782
158724
158810
158877
158917
158844
158830
158781
158623
158622
158702
158827
158877
158931
158853
158754
158718
158678
158612
158664
158754
158852
158933
158863
158785
158765
158706
158613
158688
158770
158813
158767
158656
158808
158893
158793
158754
158732
158705
158664
158746
158714
158741
158870
158785
158736
158723
158675
158709
158731
158733
158755
158655
158572
158605
158676
158685
158736
158771
158748
158714
158695
158564
158632
158787
158746
158591
158542
158633
158707
158784
158800
158746
158692
158589
158628
158638
158701
158718
158819
158827
158774
158656
158611
158553
158549
158589
158667
158733
158720
158624
158501
158489
158551
158653
158593
158563
158595
158667
158600
158599
158557
158556
158686
158649
158553
158515
158581
158561
158474
158626
158545
158482
158533
158535
158558
158589
158562
158579
158486
158508
158547
158438
158456
158491
158429
158488
158585
158575
158527
158277
157943
157877
157942
158039
158098
158149
158091
158159
158245
158343
158461
158430
158318
158246
158222
158053
157978
157930
157913
157840
157848
157820
157723
157645
157622
157697
157792
157839
157845
157806
157877
157963
157994
158063
157953
157951
157921
158052
158125
158158
158095
158065
158146
158040
157981
158016
158053
158163
158179
158231
158248
158204
158109
158104
158025
157957
157978
158051
158154
158152
158144
157984
158077
158076
158136
158191
158082
158067
158062
158106
158075
158087
158258
158210
158163
158108
158036
158075
158065
158164
158212
158117
158083
158082
158088
158076
158055
158129
158055
158138
158178
158067
158092
158053
158026
158049
157976
158038
158080
158106
158160
158095
158161
158171
158111
158108
158104
158197
158226
158225
158116
158091
158088
158119
158158
158191
158113
158079
158054
158100
158167
158119
158157
158132
158062
158087
158054
158096
158096
157976
157892
157964
158012
158106
158108
158099
157979
158005
157983
158011
158041
157966
157918
157949
157935
157878
157976
158036
157929
157837
157908
157888
157856
157865
157826
157847
157838
157862
157876
157821
157815
157729
157683
157730
157831
157892
157860
157870
157950
157869
157861
157777
157778
157739
157784
157826
157850
157905
157820
157729
157742
157683
157817
157752
157788
157815
157772
157852
157875
157800
157770
157756
157847
157826
157810
157734
157699
157772
157853
157914
157887
157747
157709
157688
157752
157829
157874
157850
157932
157794
157811
157889
157819
157698
157687
157704
157684
157817
157822
157781
157895
157912
157861
157773
157755
157693
157731
157837
157889
157825
157800
157735
157764
157931
157859
157737
157724
157768
157769
157695
157666
157688
157697
157732
157719
157680
157665
157615
157657
157701
157700
157830
157878
157787
157738
157703
157678
157662
157666
157697
157700
157678
157680
157674
157699
157659
157602
157591
157606
157765
157832
157738
157676
157616
157600
157620
157624
157666
157648
157678
157672
157684
157704
157700
157681
157694
157666
157729
157693
157677
157649
157618
157613
157635
157688
157686
157662
157781
157765
157700
157723
157678
157598
157603
157633
157615
157565
157649
157721
157812
157735
157648
157723
157694
157663
157587
157598
157668
157717
157700
157651
157577
157668
157766
157750
157733
157707
157640
157644
157659
157691
157649
157510
157443
157466
157674
157671
157699
157744
157670
157576
157569
157713
157649
157472
157418
157431
157557
157659
157750
157684
157585
157590
157562
157538
157549
157555
157520
157543
157544
157536
157533
157627
157595
157622
157688
157699
157831
157666
157662
157711
157680
157723
157688
157693
157699
157659
157788
157858
157825
157826
157735
157784
157644
157469
157356
157252
157334
157260
157206
157188
157089
157164
157143
157208
157239
157244
157293
157354
157459
157402
157358
157460
157465
157494
157497
157419
157505
157575
157567
157578
157498
157463
157442
157436
157556
157568
157608
157600
157610
157626
157519
157496
157513
157489
157461
157403
157396
157443
157534
157705
157703
157635
157546
157556
157519
157509
157558
157528
157501
157556
157533
157426
157441
157444
157516
157546
157599
157533
157616
157539
157480
157436
157482
157387
157395
157356
157353
157540
157607
157634
157564
157546
157501
157489
157533
157418
157402
157508
157559
157592
157440
157440
157532
157511
157494
157480
157483
157506
157487
157534
157524
157473
157445
157493
157493
157471
157524
157543
157612
157694
157541
157544
157550
157549
157588
157483
157446
157480
157461
157485
157485
157443
157394
157388
157474
157490
157461
157380
157427
157457
157451
157468
157268
157233
157295
157333
157444
157427
157401
157383
157345
157309
157309
157350
157337
157334
157353
157291
157256
157267
157296
157315
157326
157364
157316
157249
157307
157353
157270
157341
157358
157316
157286
157312
157328
157294
157294
157328
157375
157339
157288
157379
157425
157314
157306
157236
157200
157272
157290
157370
157399
157389
157427
157333
157319
157240
157342
157386
157291
157257
157286
157369
157390
157369
157353
157267
157342
157371
157279
157341
157347
157280
157198
157198
157197
157258
157340
157345
157400
157356
157324
157302
157311
157236
157196
157127
157191
157217
157247
157323
157324
157356
157362
157324
157273
157222
157218
157230
157197
157218
157258
157242
157209
157215
157188
157136
157163
157165
157173
157172
157173
157181
157251
157184
157139
157107
157188
157203
157185
157168
157094
157105
157202
157181
157117
157091
157105
157239
157348
157268
157132
157094
157072
157066
157085
157093
157099
157166
157182
157127
157084
157136
157194
157212
157111
157002
157042
157113
157169
157090
157146
157223
157220
157164
157247
157176
157066
157148
157161
157221
157192
157172
157178
157158
157112
157077
157061
157146
157219
157191
157137
157122
157136
157178
157148
157113
157131
157176
157153
157080
157098
157088
157017
157129
157163
157220
157123
157047
157106
157117
157164
157057
156969
156990
157032
157069
157047
157052
157100
157106
157030
157049
157043
157049
157029
156909
156942
157014
157027
156952
156909
156962
157029
156964
157004
157049
157021
157034
157045
156969
156910
156891
156952
156918
157024
156937
156903
156884
156971
157049
156998
156971
156976
156916
156971
157012
156970
156948
157057
157148
157259
157335
157299
157259
157185
157105
157131
157140
157074
156876
156788
156771
156780
156715
156664
156538
156473
156422
156451
156495
156369
156369
156482
156652
156740
156704
156740
156786
156858
156944
156901
156936
156791
156780
156867
156873
156905
156841
156922
156935
156883
156905
156868
156912
156913
156798
156768
156757
156916
156950
156893
156930
156960
156845
156942
156900
156852
156879
156879
156871
156845
156847
156821
156854
156952
156925
156874
156862
156887
156898
156952
156978
156885
156826
156861
156793
156856
156793
156722
156697
156762
156916
156996
156955
156828
156685
156730
156760
156823
157031
156910
156860
156856
156808
156779
156812
156809
156881
157022
156989
156909
156825
156818
156896
156973
156946
156887
156920
156910
156900
156884
156931
156918
156910
156908
156874
156916
156953
156951
156815
156888
156962
156971
156883
156786
156732
156711
156825
156941
156972
156879
156823
156841
156834
156891
156959
156920
156831
156875
156898
156916
156924
156907
156847
156694
156589
156615
156706
156814
156965
156963
156917
156872
156915
156804
156693
156784
156848
156798
156744
156705
156745
156916
156879
156860
156838
156862
156814
156758
156797
156899
156929
156952
156984
156926
156805
156886
156887
156826
156915
156959
156982
157011
156927
156862
156767
156803
156835
156854
156882
156911
156940
156865
156823
156866
156825
156851
156968
157006
157026
157031
156910
156903
156901
156961
157020
156998
156949
156909
156891
156871
156914
156921
156868
156880
156874
156989
156913
156898
156912
156838
156912
156916
156880
156847
156806
156816
156790
156799
156908
156948
156960
156925
156875
156835
156773
156798
156815
156826
156905
156921
156799
156815
156881
156835
156780
156732
156713
156796
156925
156845
156866
156885
156876
156835
156781
156755
156777
156846
156809
156764
156815
156792
156838
156968
156909
156780
156728
156776
156786
156789
156864
156859
156800
156816
156767
156758
156839
156839
156801
156828
156945
156979
156905
156806
156668
156692
156763
156811
156722
156643
156708
156860
156959
156840
156741
156835
156814
156821
156872
156843
156830
156822
156790
156733
156617
156625
156774
156899
156908
156796
156807
156784
156830
156793
156786
156849
156848
156843
156812
156785
156854
156798
156801
156757
156746
156681
156766
156850
156866
156823
156871
156867
156859
156928
156840
156799
156916
156945
156861
156750
156721
156769
156930
156862
156768
156761
156735
156744
156846
156806
156759
156751
156693
156614
156583
156549
156653
156878
156990
156845
156828
156808
156796
156676
156629
156658
156732
156751
156714
156717
156735
156737
156709
156752
156586
156490
156524
156623
156703
156743
156811
156755
156707
156644
156579
156615
156677
156757
156757
156740
156782
156800
156848
156912
156934
156862
156845
156880
156899
156961
156870
156884
156856
156714
156626
156548
156387
156343
156296
156236
156246
156277
156298
156265
156235
156231
156292
156339
156489
156479
156479
156582
156695
156743
156730
156715
156664
156681
156720
156691
156696
156715
156698
156632
156601
156710
156727
156691
156671
156689
156758
156697
156666
156701
156789
156715
156707
156720
156643
156634
156781
156824
156836
156729
156660
156653
156716
156824
156827
156778
156766
156733
156652
156671
156664
156653
156646
156711
156698
156645
156719
156728
156650
156630
156575
156709
156793
156785
156728
156674
156741
156785
156788
156651
156589
156570
156493
156617
156751
156767
156790
156749
156662
156641
156686
156737
156686
156721
156760
156707
156768
156906
156963
156822
156687
156729
156754
156781
156859
156786
156810
156829
156743
156584
156560
156709
156831
156925
156829
156723
156744
156681
156684
156686
156613
156587
156571
156570
156737
156606
156615
156717
156737
156683
156582
156635
156599
156579
156598
156508
156529
156572
156682
156665
156515
156498
156472
156469
156528
156524
156603
156570
156495
156493
156439
156429
156434
156488
156549
156572
156663
156634
156525
156384
156311
156349
156463
156600
156598
156568
156567
156542
156547
156555
156499
156419
156499
156585
156568
156584
156553
156514
156551
156543
156463
156516
156528
156578
156630
156554
156563
156555
156601
156519
156421
156412
156497
156634
156632
156615
156615
156589
156569
156530
156521
156502
156539
156584
156516
156499
156580
156708
156746
156645
156629
156579
156610
156622
156544
156549
156616
156640
156601
156625
156595
156616
156625
156601
156575
156594
156521
156603
156616
156607
156589
156612
156526
156420
156391
156459
156582
156798
156846
156697
156544
156476
156480
156464
156571
156664
156681
156675
156636
156657
156578
156539
156489
156518
156540
156465
156506
156556
156579
156566
156525
156479
156411
156519
156520
156568
156615
156605
156551
156483
156421
156422
156458
156501
156534
156476
156581
156681
156775
156670
156529
156453
156462
156441
156455
156398
156542
156620
156585
156569
156438
156390
156369
156447
156561
156590
156753
156695
156530
156489
156445
156522
156536
156538
156493
156475
156372
156316
156419
156521
156509
156553
156455
156417
156467
156485
156522
156441
156357
156379
156412
156461
156512
156478
156435
156448
156485
156430
156364
156331
156253
156275
156336
156381
156393
156328
156414
156395
156420
156504
156279
156262
156249
156414
156398
156353
156354
156333
156377
156425
156362
156384
156337
156298
156253
156307
156380
156413
156391
156332
156395
156484
156442
156471
156514
156529
156539
156569
156559
156525
156437
156359
156261
156294
156238
156122
156032
156000
156081
155914
155808
155772
155803
155761
155819
155971
156061
156163
156077
156011
156001
156102
156161
156185
156231
156169
156210
156205
156243
156211
156190
156229
156187
156236
156292
156208
156203
156283
156274
156310
156246
156253
156229
156219
156187
156115
156211
156292
156309
156320
156253
156247
156227
156126
156187
156251
156356
156325
156184
156027
156064
156209
156254
156233
156203
156258
156218
156213
156292
156269
156219
156226
156200
156220
156242
156218
156201
156161
156221
156180
156212
156239
156246
156284
156212
156142
156101
156118
156233
156340
156332
156334
156256
156261
156207
156249
156339
156351
156322
156309
156278
156255
156249
156246
156195
156130
156227
156249
156278
156387
156302
156307
156324
156326
156332
156267
156280
156306
156277
156333
156253
156295
156292
156276
156214
156222
156309
156289
156235
156206
156151
156202
156151
156168
156223
156191
156268
156218
156157
156221
156161
156136
156205
156198
156214
156130
156085
156106
156156
156043
156084
156102
156151
156195
156107
155978
155984
156062
156221
156249
156200
156140
156216
156149
156052
156039
156082
156187
156130
156197
156017
156017
156027
156004
156019
156097
156221
156188
156060
156102
156067
156094
156119
156120
156133
156093
156083
156055
156062
156100
156074
156163
156136
156072
156005
156102
156165
156117
156093
156118
156111
156118
156029
156017
156047
156055
156141
156087
156139
156235
156092
156032
156020
156025
156011
155994
156067
156129
156099
156037
156120
156152
156038
156015
156057
156079
156098
156036
156072
156094
156045
156037
156051
156011
155977
155997
155968
155996
156013
156025
155942
155931
156024
156008
155964
155935
155988
155925
155786
155857
155930
156071
156025
155933
155896
155873
155922
155899
155859
155868
155845
155836
155878
155934
155968
155983
155992
155889
155860
155856
155891
155993
155969
155948
155982
156047
156057
155970
155988
155974
155864
155751
155748
155909
156104
156009
155972
155932
155916
155909
155985
155984
155951
155935
155885
155914
155855
155889
155980
155914
155906
155944
155886
155913
155896
155853
155896
155894
155938
155960
155890
155894
155862
155809
155846
155839
155854
155960
156003
156061
156094
156012
156059
155961
155849
155821
155889
155894
155955
155943
155959
155882
155774
155702
155804
155859
155999
155968
155999
155965
155887
155918
155886
155797
155754
155790
155986
155982
155942
155978
155848
155842
155802
155808
155837
155774
155782
155827
155850
155896
155793
155741
155736
155772
155872
156017
156008
155954
155990
155963
155881
155805
155829
155957
156111
156131
156064
156072
156059
156179
156063
156038
156002
155968
155888
155874
155808
155621
155546
155587
155521
155450
155395
155397
155481
155451
155420
155477
155521
155500
155438
155452
155533
155683
155857
155667
155763
155885
155935
155913
155814
155755
155775
155732
155723
155732
155799
155731
155764
155780
155759
155900
155973
155867
155787
155817
155823
155812
155868
155891
155926
155902
155891
155870
155827
155791
155852
155868
155944
155961
155904
155899
155835
155768
155791
155788
155874
155885
155960
155977
155869
155918
155906
155948
155980
155946
155989
156003
156010
155895
155770
155804
155872
155954
156006
155941
156064
156049
156031
156007
155897
155861
155880
155956
156065
155956
156008
156010
155998
155990
156002
155967
155974
155904
155963
156030
156089
156160
156091
156005
155941
155940
155985
155986
156001
156095
156081
156072
156104
156052
155965
155880
155914
155868
155924
155927
155994
155966
155983
156021
156064
156064
156053
155901
155797
155896
156011
155921
155948
155920
155909
155938
155872
155784
155796
155842
155890
155854
155823
155888
155847
155895
155855
155861
155818
155767
155783
155832
155817
155867
155783
155810
155834
155855
155918
155864
155766
155735
155710
155872
155938
155968
155921
155916
155873
155818
155864
155928
155982
155905
155851
155957
155823
155887
155868
155729
155802
155817
155784
155753
155712
155724
155815
155940
156031
155967
155906
155905
155899
155890
155833
155821
155734
155804
155906
155895
155872
155854
155849
155865
155850
155828
155839
155878
155895
155871
155860
155920
155948
155868
155795
155870
155893
155850
155886
155868
155738
155776
155832
155805
155783
155696
155766
155958
155988
155994
155904
155918
155864
155857
155854
155852
155828
155763
155751
155837
155917
155921
155933
155852
155811
155847
155783
155761
155801
155845
155858
155867
155936
155834
155866
155963
155944
155855
155857
155832
155813
155766
155865
155906
155854
155871
155891
155855
155842
155824
155868
155982
155884
155871
155955
155980
155834
155804
155815
155897
156050
156183
156151
155952
155884
155832
155819
155906
155977
155919
155990
156043
155976
156043
155947
155929
155925
156000
156060
155917
155924
156034
156059
156018
155984
156092
156137
156086
156001
155949
156026
156052
156040
156077
155976
155955
155935
155956
155999
155908
156035
156207
156132
156171
156124
156129
156081
156002
155922
155871
155932
156117
156311
156227
156117
156083
155997
155989
156023
155969
156128
156097
156073
156149
156230
156214
156208
156030
155958
156003
156043
156114
156158
156104
156059
156077
155992
156011
156044
156079
156078
156122
156101
156156
156148
156086
156149
156126
156147
156105
156218
156296
156219
156228
156274
156343
156420
156351
156342
156362
156449
156458
156380
156352
156309
156276
156297
156234
156086
155924
155918
155853
155769
155714
155761
155763
155837
155774
155749
155850
155897
155928
156005
156067
156133
156188
156102
156072
156102
156107
156199
156216
156275
156289
156149
156101
156095
156185
156253
156227
156222
156122
156027
156118
156311
156425
156338
156256
156273
156268
156206
156293
156309
156296
156272
156279
156250
156233
156243
156122
156136
156273
156253
156299
156379
156342
156342
156261
156301
156335
156285
156231
156261
156298
156301
156415
156206
156226
156268
156218
156343
156436
156443
156396
156396
156375
156301
156243
156244
156283
156392
156370
156326
156359
156316
156422
156450
156385
156419
156388
156376
156406
156359
156387
156367
156441
156432
156434
156341
156323
156412
156452
156484
156502
156400
156393
156364
156355
156429
156337
156319
156368
156324
156316
156346
156429
156440
156411
156390
156324
156365
156340
156358
156448
156510
156533
156369
156347
156303
156284
156319
156355
156330
156319
156385
156454
156460
156369
156344
156237
156253
156333
156352
156397
156366
156281
156243
156232
156258
156278
156305
156314
156334
156403
156376
156418
156370
156330
156346
156352
156315
156298
156305
156296
156329
156343
156358
156361
156324
156355
156409
156329
156363
156362
156420
156434
156284
156250
156296
156410
156335
156278
156292
156391
156404
156535
156510
156401
156332
156301
156364
156334
156341
156352
156359
156368
156383
156451
156427
156416
156381
156413
156395
156384
156303
156300
156333
156411
156421
156429
156395
156409
156442
156365
156257
156275
156269
156182
156368
156369
156434
156442
156464
156417
156398
156381
156350
156281
156270
156291
156402
156426
156388
156383
156421
156374
156288
156248
156258
156219
156363
156395
156400
156444
156296
156231
156306
156362
156448
156224
156257
156314
156370
156359
156291
156256
156219
156213
156268
156246
156293
156355
156310
156315
156291
156349
156369
156384
156274
156139
156200
156248
156350
156410
156412
156396
156368
156402
156404
156250
156260
156274
156245
156330
156279
156310
156368
156362
156350
156303
156320
156310
156336
156322
156265
156236
156312
156372
156380
156307
156329
156303
156354
156290
156207
156278
156305
156428
156530
156431
156396
156385
156326
156343
156339
156284
156238
156163
156218
156323
156407
156301
156310
156368
156379
156320
156270
156245
156232
156203
156233
156279
156261
156257
156193
156224
156330
156450
156333
156195
156204
156260
156266
156293
156263
156276
156350
156195
156216
156244
156274
156290
156363
156395
156343
156333
156351
156316
156324
156372
156440
156532
156588
156473
156456
156439
156473
156560
156454
156404
156262
156300
156341
156297
156225
156194
156068
155943
155825
155778
155830
155895
155967
155955
156013
156031
156002
156052
156033
156021
156134
156215
156319
156463
156340
156298
156242
156232
156276
156267
156387
156328
156252
156317
156280
156281
156283
156312
156270
156155
156188
156162
156251
156404
156355
156437
156455
156375
156315
156188
156160
156247
156232
156223
156361
156459
156493
156344
156249
156188
156186
156315
156369
156363
156361
156364
156278
156301
156358
156252
156145
156128
156263
156338
156387
156394
156329
156275
156305
156229
156262
156321
156405
156467
156365
156357
156394
156384
156386
156333
156287
156357
156370
156365
156321
156330
156375
156398
156411
156381
156320
156263
156310
156435
156493
156423
156387
156371
156375
156316
156326
156298
156259
156217
156222
156309
156440
156481
156417
156265
156264
156260
156272
156239
156162
156133
156252
156394
156323
156269
156256
156219
156166
156116
156120
156163
156298
156309
156282
156232
156164
156172
156151
156063
156078
156216
156126
156131
156205
156172
156148
156202
156162
156241
156187
156095
156088
156105
156092
156033
156010
156012
156013
156128
156189
156277
156258
156200
156147
156129
156106
156141
156186
156133
156099
156124
156178
156165
156178
156178
156237
156197
156226
156171
156180
156208
156225
156227
156137
156105
156168
156184
156132
156111
156087
156172
156314
156238
156192
156188
156143
156130
156066
156038
156022
156175
156336
156237
156143
156100
156122
156156
156123
156182
156171
156154
156128
156131
156127
156077
156093
156072
156032
156037
156111
156208
156244
156242
156138
156037
155972
156011
156076
156223
156149
156114
156106
156064
156002
155935
155998
156085
156189
156202
156145
156097
156096
156113
156171
156109
156037
155983
156030
155997
156031
156073
156071
156085
156065
156081
156128
156019
156030
156097
156022
156002
156030
156020
156012
155925
155940
155995
156090
156117
156097
156161
156116
156095
156045
155993
156057
156045
156075
156087
156025
156054
156052
156027
155932
155884
155977
156045
156098
156170
156158
156072
156046
156082
156070
156075
156095
156063
156012
156002
156016
156093
156121
156127
156050
155911
155958
155992
156066
156148
155981
156009
156155
156081
155988
155957
156048
156169
156229
156124
156057
156023
156073
155996
156002
155942
155851
155780
155897
156068
156112
156097
156046
156091
156087
155976
155963
155868
155841
155783
155862
156019
156166
156110
156033
156029
156024
155993
155954
156022
155954
155990
156019
156049
155999
155924
155888
155864
155828
155886
155928
156118
156305
156274
156175
156098
156061
156154
156150
156111
156171
156276
156306
156216
156140
156121
156195
156112
156002
155985
155927
155761
155547
155511
155515
155502
155506
155597
155619
155528
155573
155740
155886
155854
155772
155754
155800
155854
155853
155864
155910
155952
155970
155932
155953
155914
155926
155959
156016
156027
156083
156008
155952
155990
155970
155908
155928
155926
155908
155942
155932
155973
155955
155970
156022
156081
156027
156005
155997
156030
156062
156105
156121
156023
155954
155923
156000
155956
156017
156031
156027
156077
156160
156164
156076
155929
155972
156037
156034
155900
155890
155938
155994
156076
156007
155903
155997
156177
156093
156094
156112
156046
156057
156060
156154
156101
155980
155952
156020
156042
156073
156145
156120
156051
156014
155980
156065
156072
156085
156079
155964
156015
155990
156002
156147
156066
156109
155938
155858
155968
156092
156162
156222
156142
156009
155929
155951
155996
156078
156124
156056
156044
156028
155981
155951
155858
155942
156022
156005
155980
155920
155929
155988
155916
155839
155737
155767
155782
155844
156051
155991
156003
155924
155871
155838
155814
155889
155920
155878
155818
155924
156010
155983
156002
155957
155873
155877
155867
155840
155779
155811
155943
155982
155996
155907
155828
155841
155819
155851
155910
155860
155880
155956
155995
155956
155787
155851
155937
155949
155878
155856
155883
155912
155846
155861
155879
155918
155856
155795
155834
155886
155903
155955
155948
155926
155898
155930
155855
155788
155861
155937
155953
155927
155858
155832
155824
155904
155916
155885
155852
155790
155778
155819
155846
155989
155931
155898
155874
155818
155840
155855
155823
155853
155909
155910
155847
155824
155824
155814
155828
155743
155774
155824
155873
155931
155880
155958
155902
155857
155886
155819
155815
155751
155793
155767
155634
155685
155762
155811
155849
155820
155898
156002
155931
155907
155861
155754
155762
155791
155761
155777
155796
155833
155823
155875
155885
155798
155789
155862
155863
155903
155888
155826
155845
155847
155725
155692
155702
155764
155864
155946
155934
155901
155840
155849
155900
155906
155829
155734
155709
155758
155958
156078
155985
155971
155860
155837
155833
155866
155866
155835
155807
155844
155843
155778
155885
155852
155852
155910
155902
155888
155849
155772
155763
155824
155879
155869
155809
155924
155963
155948
155960
155957
155947
155903
155844
155850
155865
155867
155816
155806
155854
155816
155744
155699
155641
155692
155664
155718
155743
155857
155898
155904
155858
155615
155514
155706
155809
155843
155805
155716
155757
155785
155798
155791
155691
155635
155669
155736
155725
155736
155772
155789
155794
155702
155635
155661
155717
155721
155716
155746
155799
155879
155852
155892
155920
155965
155992
155879
155920
155931
155979
155933
155924
155842
155732
155699
155540
155437
155429
155376
155380
155306
155270
155325
155435
155434
155388
155362
155435
155495
155598
155527
155486
155643
155705
155691
155709
155671
155623
155642
155701
155750
155699
155618
155595
155723
155703
155693
155647
155685
155756
155763
155752
155683
155697
155710
155699
155690
155732
155652
155577
155546
155597
155662
155704
155682
155652
155615
155630
155666
155725
155734
155673
155662
155554
155527
155587
155630
155682
155683
155715
155684
155687
155678
155641
155600
155666
155666
155761
155572
155559
155703
155766
155772
155630
155630
155593
155659
155583
155673
155805
155776
155760
155749
155652
155671
155684
155708
155767
155759
155762
155731
155702
155715
155636
155666
155628
155627
155782
155728
155716
155729
155733
155780
155702
155731
155680
155620
155599
155537
155581
155635
155727
155758
155600
155597
155541
155497
155522
155640
155632
155637
155651
155649
155607
155535
155544
155465
155488
155415
155545
155673
155716
155693
155535
155508
155534
155527
155486
155463
155506
155454
155411
155449
155476
155556
155463
155439
155494
155523
155565
155602
155634
155606
155494
155507
155525
155497
155486
155469
155514
155519
155533
155516
155432
155538
155572
155556
155628
155625
155624
155594
155557
155541
155504
155532
155631
155566
155585
155601
155653
155642
155571
155624
155594
155433
155376
155344
155459
155472
155570
155646
155657
155591
155494
155475
155457
155563
155442
155392
155412
155474
155526
155541
155450
155419
155454
155423
155429
155313
155337
155356
155409
155454
155383
155435
155497
155460
155415
155303
155379
155408
155445
155461
155397
155381
155414
155399
155446
155380
155367
155388
155325
155275
155226
155339
155428
155392
155425
155415
155392
155379
155326
155293
155221
155296
155414
155360
155273

[HeartVoice API 返回]
# HeartVoice 专业 API 返回的聚合指标（不返回原始波形分析数据）
# 与下方 [算法提取后的结构化特征] 对照可定位本地算法差异
平均心率:78
最低心率:60
最高心率:79
诊断:SN
QRS宽度:99
P波宽度:99
PR间期:176
QT间期:338
QTc:385
房性早搏:0
室性早搏:0
信号质量:0.93
导联反接:true
是否异常:false

[算法提取后的结构化特征]
# 由 EcgFeatureExtractor.extract() + toPromptText() 在手机端重建
# 与手表端发给 DeepSeek 的提示词文本一致（DS 实际收到的数据）
# 注意: 用户 profile（年龄性别）未存入测量记录，手机端重建时为'未知'
#       助手如需年龄性别做医学判断，需用户单独提供

[用户属性]

[全局指标]
采样率:500Hz 时长:30.9s 总点数:15440
R波检测:40个 平均心率:67bpm 范围:60-81bpm
R波位置(样本索引):7,160,783,1217,1449,2459,2867,3323,3701,3818,4298,4562,4789,5179,5565,6061,6538,6648,7117,7217,8435,8635,9406,10204,10297,10517,11369,11693,12135,12581,12854,12998,13138,13283,13660,13933,14055,14425,14747,14912
RR间期序列(ms，[*]为偏离均值>20%的异常间期，多为早搏/误检):[306*] [1246*] 868 [464*] [2020*] 816 912 756 960 [528*] [454*] 780 772 992 954 938 [2436*] [400*] [1542*] [1596*] [440*] [1704*] [648*] 884 892 [546*] 754 [546*] 740 [644*] [330*]
RR差值序列(ms):940,-378,-404,1556,-1204,96,-156,204,-432,-74,326,-8,220,-38,-16,1498,-2036,1142,54,-1156,1264,-1056,236,8,-346,208,-208,194,-96,-314
SDNN:84.2ms RMSSD:118.5ms pNN50:61.5%
QRS宽度(本地估测,ms):55±16
PR间期(本地估测,ms):169±57
QT间期(本地估测,ms):412 QTc(Bazett):435ms QTc(Fridericia):427ms
R波平均振幅:0.34mV
R波极性:负向(负向提示导联反接/位置异常)
T/R振幅比:1.09(正常0.1-0.5，<0.1低平，>0.5高尖)
ST段偏移(本地估测,mV):-0.111(正常±0.05，>0.1抬高，<-0.1压低)
信号质量:1.00 良好

[节律判别特征]
RR变异系数:0.545(高度不规律)
Poincaré散点形态:扇形(高度不规律，疑似房颤)
短-长RR配对数(早搏代偿):4个

[逐秒分段]
时段(s)  R波  振幅范围(mV)  峰峰值(mV)  最大斜率(mV/s)  RMS(mV)
0.0-1.0  2  -3.41~3.51  6.92  129.50  2.17
1.0-2.0  1  -0.48~0.48  0.96  122.50  0.25
2.0-3.0  2  -0.48~0.50  0.99  131.00  0.26  ← 短RR+代偿间隙(早搏可能)
3.0-4.0  0  -0.56~0.37  0.93  117.50  0.13  ← 代偿间隙(配合前秒短RR)
4.0-5.0  1  -0.58~0.37  0.94  109.50  0.15
5.0-6.0  1  -0.60~0.66  1.25  142.50  0.26
6.0-7.0  1  -0.61~1.04  1.65  149.50  0.46
7.0-8.0  2  -0.58~0.45  1.04  119.00  0.22
8.0-9.0  1  -0.89~0.78  1.67  158.50  0.38
9.0-10.0  2  -0.53~0.64  1.17  201.00  0.20
10.0-11.0  1  -0.65~0.97  1.62  126.50  0.47
11.0-12.0  1  -0.49~0.38  0.87  93.50  0.13
12.0-13.0  1  -0.51~0.34  0.85  104.00  0.14
13.0-14.0  2  -0.57~0.28  0.85  104.00  0.12
14.0-15.0  2  -0.70~0.75  1.45  126.00  0.31  ← 短RR+代偿间隙(早搏可能)
15.0-16.0  0  -0.83~0.58  1.41  119.50  0.32  ← 代偿间隙(配合前秒短RR)
16.0-17.0  1  -0.73~0.65  1.38  148.00  0.32
17.0-18.0  1  -0.47~0.53  1.00  131.50  0.21
18.0-19.0  1  -0.69~0.56  1.25  117.50  0.22
19.0-20.0  0  -0.51~0.40  0.91  123.00  0.17  ← 本秒无R波(心率<60或代偿间隙)
20.0-21.0  2  -0.43~0.42  0.85  109.50  0.20
21.0-22.0  1  -0.80~0.65  1.44  112.50  0.27
22.0-23.0  1  -0.68~0.45  1.12  144.50  0.24
23.0-24.0  1  -0.74~0.75  1.48  167.00  0.44
24.0-25.0  1  -0.50~0.48  0.97  104.00  0.23
25.0-26.0  3  -0.56~0.35  0.91  112.50  0.14
26.0-27.0  2  -0.60~0.56  1.16  112.50  0.22
27.0-28.0  2  -0.51~0.41  0.92  99.50  0.13
28.0-29.0  2  -0.57~0.30  0.87  112.00  0.14
29.0-30.0  2  -0.55~0.44  0.99  107.00  0.16
逐秒RMS:2.169,0.248,0.264,0.131,0.149,0.257,0.457,0.216,0.384,0.196,0.468,0.133,0.136,0.125,0.309,0.319,0.324,0.215,0.223,0.173,0.197,0.269,0.244,0.444,0.232,0.141,0.218,0.126,0.138,0.159

[AI 解读]
# DeepSeek 返回的原始 JSON（未清洗，可能含 markdown 代码块包裹）
本次测量未使用 AI 分析（分析方法非 ds_*）
