========== ECG 算法诊断包 ==========
测量时间: 2026-07-18 21:26:40
测量时间戳:1784381200847
采样率:500 Hz
数据点数:15400
时长:30.8 秒
分析方法:ds_flash_balanced_raw
算法版本:v8
Tavily状态:未配置 Tavily Key（均衡/Max 档可选联网，本次未检索）

[原始 ECG 数据]
# 单位: ADC 原始整数值（手表 Samsung ECG SDK 返回值，约 14-17.5 万，含 DC 偏移）
# 重要: 不是 mV×1000！R 波振幅在 ADC 中表现为相对基线的偏移（±100-500），
#       不是绝对值。助手复现算法时必须先去 DC（减中位数/滑动窗口均值），
#       不能直接把这些数字当 mV 解读。
# 采样率: 500 Hz，连续采样，无降采样无压缩
# 用途: 助手据此复现本地算法行为（基线漂移/噪声段/R波检测）
# 格式: 每行一个数值，行号=采样点索引（第1行=索引0，即 t=0.000s）
# 增益校准: 应用层未做 ADC→mV 转换；如需 mV，需自行用基线/中位数去 DC 后
#           视为相对振幅（无绝对 mV 标定，因手表未公布增益系数）
184796
184917
184870
184684
184461
184229
184226
184250
184508
184713
184850
184937
184871
184672
184523
184249
184130
184193
184407
184599
184780
184896
184879
184840
184642
184358
184284
184302
184398
184510
184667
184831
184795
184625
184490
184390
184327
184362
184441
184525
184650
184790
184741
184533
184362
184192
184225
184339
184477
184627
184721
184822
184774
184593
184462
184224
184106
184117
184320
184460
184679
184847
184804
184616
184432
184166
184005
184119
184326
184458
184550
184640
184634
184527
184456
184318
184211
184243
184399
184515
184586
184726
184740
184545
184370
184140
184042
184101
184266
184459
184599
184735
184675
184548
184404
184158
184054
184087
184243
184322
184404
184644
184681
184535
184413
184174
184066
184083
184147
184263
184424
184565
184506
184377
184253
184048
183951
184053
184253
184378
184461
184652
184657
184512
184380
184209
184007
183952
184089
184274
184473
184687
184712
184549
184377
184117
183913
183898
184054
184290
184485
184712
184665
184483
184322
184098
184005
184093
184165
184244
184390
184539
184586
184440
184357
184180
184030
183942
184088
184226
184407
184578
184613
184553
184457
184218
184091
184035
184179
184329
184455
184682
184648
184422
184215
184005
183908
183983
184214
184312
184390
184553
184589
184381
184267
184175
183982
183873
183986
184167
184365
184666
184693
184517
184282
184064
183910
183887
184139
184258
184360
184555
184592
184479
184307
184058
183880
183853
184071
184277
184381
184579
184586
184406
184265
184046
183897
183895
184098
184308
184512
184680
184723
184550
184380
184198
184103
184116
184304
184448
184594
184804
184850
184767
184570
184338
184083
183978
184043
184142
184144
184261
184237
184053
183847
183625
183514
183518
183755
183984
184116
184284
184352
184281
184180
183993
183821
183726
183825
184060
184246
184578
184656
184547
184295
184037
183882
183875
183954
184102
184222
184426
184448
184346
184178
184098
183951
183891
183957
184099
184231
184378
184504
184455
184276
184078
183911
183825
183895
184059
184213
184379
184450
184309
184102
184043
183924
183907
183981
184078
184162
184419
184526
184469
184182
183930
183737
183813
183912
184096
184232
184374
184425
184382
184282
184151
183994
183887
183869
184043
184113
184292
184563
184501
184253
184117
184016
183916
183895
184057
184262
184523
184585
184527
184426
184300
184097
183922
183962
184097
184228
184485
184590
184582
184477
184291
184117
184004
184048
184121
184184
184450
184650
184583
184487
184284
184134
183977
183977
184093
184228
184452
184599
184590
184381
184157
184010
183912
184000
184113
184147
184362
184532
184458
184294
184215
184041
183906
183875
184053
184191
184283
184370
184332
184201
184094
183932
183796
183949
184108
184197
184328
184439
184403
184238
184157
183965
183803
183851
183964
184048
184253
184397
184411
184314
184108
183915
183772
183840
183977
184068
184262
184478
184445
184318
184085
183918
183801
183764
183923
184029
184337
184592
184564
184294
184121
183985
183822
183807
183995
184154
184391
184533
184491
184336
184219
184090
183973
183978
184119
184167
184370
184527
184464
184303
184195
184066
183953
183943
183995
184101
184382
184574
184561
184413
184266
184102
183900
183887
184055
184216
184476
184637
184648
184494
184305
184137
183965
183882
184038
184170
184417
184616
184732
184573
184306
184081
183837
183726
183911
184127
184447
184612
184686
184535
184313
184163
183993
183958
184085
184152
184300
184578
184608
184501
184338
184170
184046
184013
184162
184277
184462
184655
184650
184479
184250
184146
184052
183988
184119
184257
184482
184681
184655
184441
184248
184090
183957
183934
184181
184323
184435
184632
184619
184472
184343
184259
184126
184026
184083
184218
184483
184741
184774
184621
184416
184236
184048
184021
184209
184292
184452
184710
184785
184606
184480
184298
184171
184103
184239
184392
184528
184718
184762
184620
184387
184194
184097
184059
184194
184341
184513
184772
184912
184821
184606
184418
184171
184098
184260
184399
184643
184964
184960
184799
184598
184383
184191
184187
184262
184356
184547
184818
184922
184821
184637
184529
184332
184216
184265
184415
184634
184862
184936
184796
184593
184483
184267
184147
184232
184403
184690
184861
184926
184895
184633
184449
184256
184171
184304
184497
184663
184851
184910
184858
184632
184518
184323
184291
184303
184469
184691
184901
185007
184864
184623
184539
184381
184303
184400
184486
184644
184872
185033
184999
184738
184652
184471
184357
184378
184524
184724
185006
185127
185018
184811
184731
184615
184494
184579
184754
184953
185155
185313
185267
185097
184909
184664
184500
184568
184659
184809
184969
184986
184813
184539
184417
184201
184066
184163
184278
184473
184675
184757
184667
184465
184393
184340
184308
184391
184598
184743
184942
185145
185039
184742
184633
184487
184406
184555
184706
184854
185017
185140
185106
184873
184788
184566
184518
184616
184683
184776
184980
185097
185080
184974
184750
184580
184502
184563
184718
184825
185022
185209
185108
184875
184779
184674
184582
184598
184614
184805
184980
185180
185207
185032
184857
184661
184558
184619
184709
184801
184897
185001
185031
184990
184996
184765
184557
184604
184747
184818
184971
185208
185241
185047
184941
184740
184609
184631
184743
184958
185112
185302
185256
185025
184891
184735
184626
184719
184793
184948
185140
185251
185194
184967
184882
184866
184792
184823
184884
185011
185155
185258
185231
185091
185026
184881
184760
184671
184742
184957
185168
185315
185388
185149
184972
184746
184534
184593
184699
184900
185149
185280
185261
185105
185020
184823
184654
184617
184690
184862
185060
185141
185141
185009
184855
184642
184498
184511
184655
184842
184963
185049
185075
184859
184704
184608
184481
184515
184639
184897
185080
185168
185155
184951
184832
184722
184564
184550
184611
184805
184954
185075
185196
184986
184921
184753
184540
184485
184552
184742
184972
185188
185222
185066
184913
184738
184570
184533
184694
184880
184988
185143
185201
185058
185021
184949
184791
184682
184806
184983
185160
185342
185314
185105
184955
184834
184716
184698
184715
184914
185123
185206
185266
185077
184979
184958
184897
184845
184813
184908
185058
185177
185268
185275
185200
185024
184799
184720
184752
184926
185142
185345
185362
185199
185034
184864
184669
184678
184817
185040
185177
185276
185355
185295
185171
185008
184799
184740
184774
185007
185202
185365
185405
185254
185190
185027
184797
184707
184775
184972
185150
185371
185460
185354
185164
184953
184716
184667
184681
184936
185069
185243
185347
185258
185210
185083
184836
184703
184754
184865
185064
185232
185356
185305
185150
185066
184895
184823
184817
184902
185066
185280
185347
185289
185142
184950
184748
184720
184676
184930
185227
185435
185435
185242
185082
185027
184889
184770
184687
184892
185053
185246
185392
185289
185156
184976
184879
184851
184777
184938
185145
185351
185530
185433
185201
185093
184913
184734
184657
184840
185073
185323
185574
185567
185397
185244
185048
184939
184902
185020
185145
185305
185422
185479
185354
185223
185065
184896
184891
185121
185275
185497
185631
185530
185365
185191
184983
184861
184971
185241
185405
185573
185660
185544
185483
185375
185210
185066
185005
185154
185374
185547
185690
185613
185434
185326
185157
184952
184975
185239
185401
185579
185718
185604
185462
185278
185141
185090
185169
185327
185425
185612
185716
185674
185582
185438
185259
185087
185069
185287
185465
185615
185771
185777
185619
185542
185363
185184
185182
185363
185555
185762
185903
185832
185674
185513
185375
185319
185442
185647
185725
185954
186155
186221
186114
185965
185782
185565
185465
185728
185980
186142
186288
186153
185955
185769
185481
185204
185079
185234
185376
185523
185693
185671
185575
185464
185420
185246
185239
185428
185563
185758
185991
185989
185871
185764
185586
185535
185503
185584
185680
185838
186012
186148
185996
185814
185638
185466
185401
185632
185770
185914
186049
186038
185960
185880
185690
185474
185347
185536
185780
185935
186157
186210
186093
185954
185699
185448
185329
185543
185773
185933
186150
186163
186076
185926
185742
185607
185528
185672
185815
185962
186080
186135
185962
185874
185721
185615
185629
185856
185983
186064
186211
186255
186198
186050
185881
185745
185673
185716
185911
186059
186259
186339
186290
186162
186054
185873
185739
185830
185996
186207
186429
186538
186454
186271
186093
185956
185893
186014
186111
186251
186443
186515
186557
186454
186256
186049
185961
186031
186215
186397
186526
186609
186533
186397
186257
186072
185969
186119
186297
186382
186517
186532
186566
186444
186247
186042
185935
186002
186198
186415
186561
186584
186474
186318
186224
186078
186058
186089
186264
186407
186534
186565
186577
186448
186300
186054
185890
185976
186158
186332
186622
186703
186638
186454
186333
186149
185990
186058
186199
186423
186604
186645
186573
186364
186239
186082
186035
186100
186192
186334
186607
186760
186820
186709
186496
186228
186025
186097
186348
186619
186872
186866
186758
186596
186488
186355
186183
186239
186439
186660
186855
186892
186804
186605
186483
186289
186288
186400
186524
186653
186879
186945
186908
186738
186614
186421
186309
186440
186620
186669
186852
186953
186940
186734
186643
186471
186323
186460
186611
186755
186905
186951
186942
186826
186631
186591
186468
186459
186611
186699
186842
186987
186981
186915
186779
186642
186505
186501
186610
186733
186936
187062
187107
186952
186762
186591
186408
186512
186708
186867
187031
187109
187131
187014
186824
186694
186543
186579
186727
186845
187070
187196
187234
187105
186977
186772
186611
186619
186755
186871
187117
187200
187253
187123
186958
186836
186669
186688
186809
186904
187024
187164
187308
187326
187181
186965
186739
186735
186811
186928
187131
187305
187355
187252
187114
186924
186723
186785
187001
187118
187267
187402
187449
187290
187148
187023
186855
186890
187034
187236
187399
187484
187546
187352
187183
186996
186856
186940
187180
187288
187504
187650
187696
187522
187267
187156
187052
187046
187195
187415
187580
187617
187637
187513
187397
187301
187137
187129
187338
187489
187648
187821
187835
187649
187542
187465
187329
187228
187355
187470
187680
187802
187918
187797
187683
187625
187340
187272
187352
187512
187704
187994
188117
188067
187901
187666
187444
187419
187563
187633
187836
188014
188037
187953
187869
187679
187480
187475
187603
187706
187867
187993
188039
187916
187792
187685
187566
187578
187648
187778
187957
188096
188167
188062
187912
187763
187571
187521
187683
187866
187989
188100
188216
188136
188003
187857
187683
187646
187721
187931
188050
188136
188314
188233
188081
187948
187788
187738
187840
187993
188078
188172
188294
188243
188071
188076
187914
187814
187891
188033
188204
188374
188601
188598
188469
188312
188081
188057
188151
188281
188406
188574
188683
188572
188343
188151
187813
187618
187632
187742
187824
187937
188056
188021
187911
187866
187645
187530
187623
187877
188036
188186
188281
188223
188075
188026
187868
187901
187943
188066
188164
188256
188331
188282
188219
188140
187886
187842
187937
188154
188271
188437
188519
188428
188271
188163
187885
187729
187839
188120
188333
188494
188525
188497
188300
188168
187984
187903
187963
188115
188256
188420
188539
188558
188380
188231
188017
187965
188033
188157
188236
188432
188613
188641
188488
188333
188021
187976
188063
188250
188323
188488
188681
188680
188537
188357
188121
188024
188051
188320
188553
188789
188905
188883
188726
188562
188283
188152
188222
188431
188655
188777
188910
188874
188695
188552
188391
188265
188362
188570
188672
188785
188928
188903
188778
188616
188397
188316
188366
188511
188614
188768
188952
188936
188727
188603
188398
188351
188385
188484
188597
188747
188893
188891
188809
188719
188466
188292
188289
188380
188516
188662
188840
188841
188690
188528
188298
188201
188189
188378
188500
188697
188876
188876
188705
188551
188318
188154
188121
188334
188452
188556
188825
188866
188688
188564
188333
188190
188178
188377
188535
188632
188770
188752
188683
188599
188390
188223
188223
188402
188546
188720
188827
188857
188778
188623
188438
188315
188245
188417
188660
188791
188961
188989
188808
188716
188564
188416
188388
188569
188719
188850
188971
189035
188861
188776
188642
188562
188486
188533
188716
188839
189108
189181
188969
188799
188623
188503
188383
188537
188799
188992
189145
189202
189076
188913
188639
188497
188479
188728
188919
188936
189100
189176
189099
188919
188659
188533
188498
188592
188797
188968
189180
189202
189091
188930
188683
188585
188575
188617
188741
188895
189063
189118
189046
188915
188756
188664
188584
188642
188751
188890
189137
189262
189107
188918
188628
188584
188590
188629
188789
188922
189143
189152
189017
188939
188804
188663
188632
188761
188915
188972
189088
189172
189047
188869
188709
188620
188626
188701
188861
188942
189135
189208
189123
188985
188791
188541
188484
188577
188714
188817
189050
189122
189230
189077
188812
188619
188539
188668
188808
188961
189182
189298
189169
188970
188826
188612
188494
188581
188739
188890
189130
189224
189118
188953
188723
188596
188585
188730
188894
188983
189197
189288
189249
189061
188902
188669
188520
188531
188707
188955
189241
189319
189354
189171
188939
188804
188740
188787
188924
189050
189286
189352
189293
189130
188933
188798
188833
188882
188997
189137
189339
189525
189434
189248
189058
188944
188920
189008
189096
189158
189399
189493
189427
189314
189191
189054
188961
188972
189135
189221
189379
189555
189435
189300
189137
188961
188836
188922
189159
189232
189367
189592
189555
189403
189241
189076
188954
189014
189157
189269
189546
189734
189567
189371
189166
189042
188978
189016
189113
189233
189444
189641
189636
189434
189287
189092
189001
189051
189239
189361
189519
189707
189721
189589
189441
189289
189204
189292
189444
189562
189794
189961
189913
189718
189520
189343
189280
189272
189304
189310
189421
189508
189486
189300
189131
188976
188884
188820
188989
189127
189363
189527
189604
189437
189307
189177
189066
189132
189312
189485
189669
189865
189907
189776
189606
189396
189229
189217
189384
189469
189638
189837
189914
189831
189590
189430
189300
189281
189414
189450
189615
189767
189842
189880
189723
189601
189435
189282
189409
189555
189780
189912
189914
189777
189602
189517
189420
189384
189528
189702
189897
189990
190001
189903
189713
189507
189319
189264
189446
189641
189867
190049
190127
190040
189851
189730
189539
189454
189558
189667
189889
190106
190200
190120
189908
189732
189578
189561
189670
189843
190094
190251
190267
190089
189911
189900
189834
189747
189864
190002
190252
190360
190395
190293
190111
189979
189856
189800
189862
190010
190225
190424
190512
190386
190237
190122
189974
189929
190089
190119
190279
190460
190425
190261
190115
189956
189774
189807
190075
190219
190332
190436
190442
190294
190073
189975
189828
189756
189991
190174
190300
190444
190478
190393
190110
189984
189919
189823
189900
189991
190123
190305
190501
190504
190245
190080
189912
189834
189949
190103
190280
190452
190479
190327
190168
190065
189931
189887
189982
190098
190281
190570
190617
190488
190257
190165
189991
189996
190119
190258
190409
190553
190608
190559
190431
190308
190093
189981
190094
190298
190491
190654
190710
190642
190486
190410
190267
190219
190230
190281
190452
190738
190839
190785
190609
190521
190336
190228
190281
190450
190563
190760
190903
190873
190613
190484
190288
190231
190360
190609
190774
190978
191063
190960
190688
190535
190328
190326
190457
190556
190737
191047
191126
191078
190920
190754
190565
190437
190476
190542
190698
190938
191057
191078
190932
190878
190679
190554
190556
190740
190913
191050
191105
191085
190894
190814
190764
190721
190766
190752
190899
191132
191312
191276
191132
191012
190742
190626
190693
190829
191059
191308
191468
191449
191214
191072
190862
190738
190730
190846
191065
191287
191442
191360
191158
191050
190931
190909
191068
191074
191182
191365
191486
191448
191284
191139
190877
190683
190755
190975
191234
191519
191690
191557
191330
191195
191018
190890
190826
190965
191164
191316
191523
191532
191344
191236
191045
190899
190879
190920
191093
191293
191541
191590
191381
191237
191025
190923
190899
191036
191284
191455
191623
191588
191363
191248
191097
190988
191106
191215
191401
191594
191739
191674
191386
191287
191087
190969
190982
191144
191405
191548
191597
191616
191368
191306
191323
191177
191063
191164
191307
191454
191614
191681
191498
191419
191212
191034
191015
191113
191249
191488
191646
191725
191596
191506
191348
191157
191084
191166
191367
191492
191609
191709
191508
191437
191322
191221
191113
191196
191413
191603
191666
191704
191579
191467
191410
191300
191252
191303
191473
191603
191870
191954
191794
191799
191696
191487
191467
191505
191725
191978
192121
192080
191852
191689
191439
191164
190972
190984
191165
191340
191466
191508
191412
191287
191211
191102
191078
191231
191375
191441
191618
191764
191709
191622
191483
191300
191164
191155
191352
191651
191948
191971
191726
191644
191557
191365
191363
191466
191584
191695
191881
192032
191855
191677
191531
191375
191310
191358
191507
191701
191848
191910
191795
191722
191663
191335
191222
191249
191489
191627
191697
191700
191597
191583
191679
191540
191408
191379
191544
191713
191878
191886
191747
191621
191513
191302
191250
191317
191488
191636
191818
191868
191711
191568
191499
191375
191326
191314
191459
191623
191825
191885
191741
191599
191548
191441
191417
191297
191413
191655
191883
191932
191865
191799
191618
191368
191364
191387
191531
191665
191894
191997
191929
191780
191666
191463
191304
191334
191563
191727
191869
191983
191897
191770
191568
191303
191154
191185
191515
191715
191992
192078
191905
191750
191603
191380
191239
191216
191365
191474
191639
191745
191716
191643
191516
191396
191216
191147
191314
191517
191704
191736
191658
191530
191306
191093
191100
191156
191305
191429
191620
191684
191574
191467
191316
191156
191121
191083
191184
191386
191615
191767
191676
191512
191306
191041
190917
190973
191141
191347
191622
191774
191686
191489
191323
191108
191034
191083
191241
191357
191569
191686
191561
191380
191276
191087
190932
191036
191337
191516
191622
191680
191615
191515
191385
191239
191077
191051
191289
191475
191647
191772
191665
191579
191372
191231
191221
191122
191240
191440
191567
191721
191696
191565
191502
191338
191148
191091
191186
191311
191523
191732
191797
191651
191490
191249
191017
190944
191150
191334
191702
191900
191786
191656
191517
191335
191154
191055
191236
191396
191589
191751
191665
191548
191394
191252
191168
191131
191239
191351
191569
191761
191728
191648
191484
191287
191029
190918
191132
191445
191647
191835
191760
191580
191383
191187
191026
191051
191292
191459
191649
191826
191791
191697
191493
191263
191124
191074
191230
191361
191497
191665
191755
191660
191557
191449
191221
191031
191164
191305
191427
191622
191680
191538
191385
191285
191131
191033
191205
191375
191545
191777
191790
191605
191420
191244
191091
191023
191219
191400
191570
191673
191705
191609
191494
191287
191096
191027
191186
191372
191540
191743
191756
191657
191491
191381
191276
191132
191261
191414
191602
191720
191788
191751
191630
191443
191241
191109
191204
191349
191470
191703
191824
191812
191736
191542
191258
191163
191275
191450
191603
191825
191857
191795
191622
191467
191245
191097
191244
191441
191627
191843
191851
191798
191628
191502
191270
191134
191218
191450
191594
191785
191781
191705
191502
191337
191182
191097
191253
191448
191567
191728
191772
191764
191648
191472
191246
191105
191180
191342
191525
191759
191883
191839
191669
191448
191236
191124
191252
191458
191723
191974
192054
191993
191830
191679
191535
191434
191464
191616
191724
191936
191960
191813
191602
191368
191071
190905
190988
191028
191127
191310
191271
191277
191205
191154
191030
190963
191023
191235
191355
191577
191678
191679
191592
191482
191294
191101
191107
191303
191451
191743
191829
191757
191579
191448
191181
191046
191174
191322
191439
191666
191736
191815
191628
191445
191261
191036
191086
191279
191449
191700
191802
191736
191616
191445
191214
191075
191146
191330
191463
191628
191703
191712
191596
191496
191235
191066
191170
191341
191505
191637
191711
191722
191560
191409
191213
191052
191092
191313
191445
191610
191713
191701
191526
191416
191223
191084
191187
191224
191267
191489
191709
191876
191755
191554
191379
191208
191165
191317
191468
191669
191802
191802
191675
191534
191340
191123
191236
191461
191622
191796
191860
191831
191660
191572
191438
191233
191226
191362
191487
191644
191725
191826
191733
191551
191316
191132
191221
191362
191483
191588
191636
191663
191586
191509
191288
191033
191053
191238
191448
191652
191694
191666
191468
191249
191094
190937
190965
191162
191359
191449
191561
191652
191575
191384
191173
190932
190908
191110
191321
191454
191544
191581
191433
191276
191036
190824
190823
190933
191104
191318
191450
191547
191430
191293
191140
190851
190827
191021
191249
191443
191606
191659
191419
191218
191078
190870
190845
191013
191167
191470
191644
191719
191544
191388
191249
191017
190891
190999
191214
191399
191464
191532
191424
191281
191083
190863
190925
191063
191214
191348
191493
191625
191498
191322
191150
190927
190859
190908
191051
191257
191449
191589
191463
191248
191096
190849
190892
191010
191121
191286
191420
191477
191325
191135
190933
190720
190741
190842
191090
191176
191310
191365
191297
191159
190927
190685
190624
190703
190862
191081
191266
191351
191249
191102
190988
190715
190647
190694
190793
190914
191091
191164
191120
190966
190877
190646
190560
190677
190786
190879
191034
191162
191131
190945
190827
190590
190561
190653
190816
190966
191104
191172
191020
190857
190823
190569
190429
190451
190700
190833
191006
191114
191135
190967
190810
190491
190427
190478
190586
190718
190858
191062
191018
190886
190731
190414
190321
190382
190596
190839
191047
191124
191074
190900
190755
190438
190364
190413
190584
190765
190935
191107
191028
190843
190708
190505
190456
190525
190651
190831
191064
191182
191111
190917
190780
190593
190476
190456
190611
190751
191029
191241
191239
191046
190886
190650
190551
190553
190670
190813
190967
191163
191222
191124
190913
190644
190549
190633
190815
190936
191005
191149
191181
191128
191063
190786
190631
190628
190769
190926
191062
191231
191218
191095
191007
190765
190611
190702
190914
190970
191099
191239
191286
191152
190962
190665
190510
190600
190798
190906
191058
191130
191104
191029
190954
190693
190567
190564
190687
190824
190973
191172
191155
191018
190859
190618
190500
190481
190646
190871
191010
191178
191139
191005
190836
190594
190511
190521
190717
190793
190966
191184
191188
191005
190798
190611
190487
190524
190703
190894
190996
191159
191254
191104
191049
190948
190812
190774
190873
190958
191084
191340
191465
191297
191086
190862
190577
190467
190526
190624
190670
190804
190776
190598
190440
190233
190091
190176
190378
190601
190780
190978
191037
190866
190753
190547
190469
190478
190654
190717
190830
191046
191054
190846
190732
190617
190545
190554
190631
190745
190862
191061
191083
190913
190753
190510
190373
190355
190461
190632
190861
191036
191185
191033
190855
190624
190431
190366
190511
190666
190774
190993
191090
190922
190742
190504
190349
190321
190416
190616
190727
190934
191081
190976
190838
190617
190494
190394
190435
190560
190669
190917
191091
191004
190807
190519
190346
190361
190440
190594
190676
190823
191010
190943
190796
190654
190491
190466
190526
190681
190802
191020
191101
191037
190865
190659
190512
190430
190506
190660
190826
191041
191192
191135
190980
190780
190595
190510
190564
190713
190792
190987
191133
191071
190849
190672
190574
190436
190375
190591
190768
190999
190982
190834
190652
190519
190355
190327
190370
190529
190625
190795
190877
190769
190581
190452
190246
190190
190299
190419
190541
190774
190796
190692
190473
190245
190070
190041
190172
190413
190504
190690
190771
190654
190453
190193
189995
189985
190053
190210
190423
190593
190664
190608
190393
190239
190039
190015
190067
190212
190370
190555
190652
190575
190425
190280
190148
190011
190099
190255
190366
190590
190661
190581
190405
190241
190085
190058
190096
190264
190367
190559
190704
190663
190502
190273
190111
190035
190080
190282
190408
190608
190692
190625
190502
190303
190116
190099
190129
190205
190296
190659
190743
190654
190514
190370
190186
189974
189995
190164
190305
190511
190666
190673
190563
190365
190235
190038
190044
190203
190394
190566
190674
190604
190479
190295
190120
190064
190116
190242
190330
190491
190639
190610
190442
190206
190009
189977
190045
190288
190343
190538
190689
190642
190480
190276
190074
189910
189933
190071
190197
190363
190545
190600
190473
190334
190090
189935
189918
190066
190173
190383
190529
190524
190351
190177
190060
189909
189901
190103
190262
190355
190462
190423
190267
190143
189982
189801
189815
190044
190090
190202
190404
190418
190334
190222
190046
189872
189843
189953
190079
190304
190438
190479
190308
190104
189986
189823
189736
189871
189941
190132
190321
190391
190321
190161
190048
189852
189790
189959
190062
190260
190404
190376
190149
189973
189836
189703
189777
190024
190104
190176
190326
190346
190258
190174
190094
189913
189729
189849
190007
190253
190475
190515
190354
190172
189950
189784
189732
189922
190109
190349
190440
190464
190296
190138
190052
189863
189759
189881
190033
190245
190444
190499
190323
190097
189948
189758
189727
189956
190093
190194
190340
190430
190310
190167
190011
189846
189854
189926
189979
190136
190347
190457
190361
190106
189983
189799
189759
189928
190054
190214
190392
190468
190359
190112
190025
189879
189809
189873
189997
190207
190449
190542
190427
190219
190100
189929
189901
190069
190143
190305
190526
190577
190539
190368
190341
190231
190172
190264
190362
190545
190773
190784
190610
190364
190204
190005
189878
189820
189897
189959
190116
190133
190094
189960
189934
189705
189604
189693
189837
190120
190346
190453
190375
190140
190038
189893
189818
189925
190091
190257
190385
190474
190510
190257
190124
189946
189908
189906
189983
190244
190472
190524
190512
190327
190164
189886
189836
189968
190062
190206
190430
190492
190403
190230
190211
190039
189876
189928
190039
190156
190363
190472
190428
190281
190144
189898
189836
189968
190100
190197
190357
190424
190394
190173
190087
189898
189778
189888
189990
190239
190496
190487
190398
190232
190166
190019
189884
189909
189984
190123
190357
190497
190476
190279
190128
189869
189747
189837
189911
190156
190396
190555
190492
190281
190211
190049
189883
189932
190022
190208
190398
190495
190425
190222
190151
190006
189859
189838
189939
190175
190438
190573
190557
190334
190161
189997
189850
189897
189992
190115
190230
190280
190270
190152
190107
189994
189809
189789
189806
189971
190111
190206
190254
190120
190000
189856
189696
189710
189877
189922
190049
190217
190202
190040
189994
189743
189530
189576
189657
189847
190061
190272
190267
189999
189833
189676
189499
189509
189639
189783
189862
190035
190085
189914
189891
189760
189590
189577
189636
189699
189816
189965
190073
190060
190033
189785
189571
189559
189668
189828
189994
190134
190096
189923
189810
189615
189460
189435
189638
189868
189967
190107
190074
189850
189729
189617
189561
189554
189725
189851
189935
190098
190162
189948
189805
189638
189511
189508
189710
189859
189986
190171
190214
190045
189919
189688
189486
189447
189597
189838
189982
190148
190115
189848
189763
189627
189483
189549
189649
189708
189905
190122
190128
189940
189819
189587
189422
189413
189526
189736
189979
190103
190161
189899
189765
189654
189528
189468
189543
189699
189843
189950
190027
189950
189906
189730
189504
189481
189541
189727
189833
189957
189980
189788
189679
189683
189581
189491
189515
189698
189853
190038
190120
189953
189757
189674
189440
189422
189463
189633
189800
189954
190012
189918
189789
189666
189524
189388
189393
189536
189709
189951
190079
189966
189844
189674
189484
189461
189493
189668
189819
189965
190000
189923
189806
189687
189417
189340
189351
189536
189752
189920
190038
190002
189946
189819
189654
189509
189411
189622
189774
189894
189986
189898
189849
189763
189557
189487
189545
189681
189827
189999
190095
190031
189910
189753
189545
189434
189483
189739
189974
190212
190240
190132
190072
189926
189666
189543
189511
189675
189928
190084
190167
190167
190082
189915
189692
189606
189614
189806
190019
190191
190269
190127
189934
189771
189653
189616
189700
189858
189995
190217
190337
190234
190031
189914
189762
189661
189743
189957
190042
190149
190237
190174
190038
189924
189725
189677
189633
189899
190051
190308
190399
190225
190132
190057
189864
189768
189746
189854
189983
190164
190322
190252
190139
190039
189920
189842
189832
189964
190122
190292
190395
190278
190152
190119
190007
189910
189854
189989
190138
190372
190553
190516
190416
190287
190072
189930
189959
190161
190377
190636
190825
190733
190618
190530
190349
190228
190182
190318
190429
190531
190562
190363
190134
189939
189756
189629
189642
189892
189981
190163
190328
190310
190200
190141
190055
189882
189923
190106
190226
190409
190586
190571
190466
190408
190270
190124
190066
190203
190367
190544
190658
190600
190471
190342
190228
190071
190054
190305
190442
190637
190802
190747
190649
190519
190312
190160
190093
190334
190519
190696
190841
190825
190693
190534
190325
190165
190094
190283
190441
190642
190866
190880
190697
190536
190371
190252
190257
190445
190596
190750
190869
190844
190726
190634
190531
190401
190292
190460
190601
190711
190856
190860
190845
190877
190694
190480
190421
190527
190691
190880
191095
191052
190905
190809
190692
190643
190550
190668
190804
190953
191106
191154
191185
191087
190840
190626
190531
190730
190906
191127
191297
191269
191117
190967
190820
190649
190563
190689
190946
191126
191288
191263
191154
190988
190844
190718
190652
190767
190881
191064
191225
191241
191140
191075
190908
190695
190551
190670
190782
190859
191007
191159
191254
191075
190866
190598
190472
190621
190856
190951
191061
191118
191081
190999
190972
190754
190591
190717
190901
191067
191165
191144
191072
190955
190821
190600
190586
190721
190910
191050
191199
191185
191102
190913
190761
190634
190656
190898
191004
191093
191272
191270
191172
190985
190843
190809
190796
190859
191028
191214
191433
191442
191400
191245
191091
190839
190721
190849
191059
191218
191422
191472
191457
191326
191155
190946
190848
190959
191142
191278
191459
191474
191402
191242
191060
190832
190803
191075
191253
191407
191594
191590
191528
191355
191268
191060
190894
190979
191122
191236
191429
191618
191623
191427
191290
191065
190871
190893
191057
191221
191442
191609
191540
191376
191252
191037
190934
191029
191195
191349
191580
191668
191591
191413
191232
191047
190900
191061
191257
191446
191595
191585
191543
191472
191396
191144
190980
191041
191122
191293
191475
191575
191623
191521
191394
191104
190971
191030
191196
191371
191618
191724
191648
191445
191280
191055
190883
191020
191250
191350
191575
191725
191689
191578
191461
191207
191013
191100
191260
191317
191444
191558
191647
191574
191493
191317
191091
191212
191310
191449
191638
191772
191786
191571
191427
191266
191076
191109
191264
191421
191608
191666
191695
191599
191449
191283
191098
191133
191290
191431
191612
191740
191829
191722
191555
191351
191158
191124
191364
191564
191727
191905
191919
191711
191530
191362
191173
191199
191402
191499
191662
191773
191786
191678
191664
191423
191165
191241
191479
191588
191734
191825
191867
191702
191561
191396
191223
191210
191396
191557
191714
191864
191941
191835
191723
191552
191340
191298
191451
191588
191747
191843
191885
191826
191561
191404
191231
191228
191393
191450
191601
191758
191843
191812
191666
191475
191181
191151
191335
191493
191706
191849
191928
191773
191554
191315
191142
191179
191292
191614
191803
191834
191871
191747
191619
191480
191227
191173
191236
191303
191504
191803
191963
191769
191578
191445
191266
191239
191316
191462
191656
191853
191982
191785
191561
191408
191253
191265
191470
191719
191911
192038
192190
192043
191870
191653
191459
191405
191500
191592
191725
191820
191825
191629
191369
191083
190817
190748
190920
191076
191264
191397
191506
191435
191288
191126
190923
190908
191000
191199
191457
191745
191877
191760
191538
191348
191059
191112
191228
191365
191578
191718
191787
191648
191482
191373
191189
191143
191227
191377
191529
191620
191675
191606
191490
191398
191195
191153
191201
191422
191545
191669
191800
191760
191545
191387
191109
191101
191190
191332
191480
191596
191727
191674
191543
191485
191329
191221
191284
191432
191544
191769
191858
191813
191633
191476
191227
191201
191242
191352
191517
191745
191983
191916
191680
191493
191265
191282
191366
191499
191654
191920
192009
191928
191748
191600
191390
191306
191320
191455
191619
191815
192027
192004
191867
191774
191464
191363
191464
191619
191761
191891
191945
191998
191875
191669
191401
191297
191340
191493
191639
191726
191822
191778
191715
191688
191464
191358
191351
191425
191517
191725
191854
191744
191654
191529
191329
191221
191281
191371
191438
191604
191779
191746
191601
191419
191177
191077
191024
191158
191306
191422
191571
191530
191462
191245
191029
190948
191025
191194
191314
191474
191555
191422
191282
191248
191072
190981
191022
191123
191204
191296
191447
191508
191489
191405
191111
190942
190931
191044
191219
191322
191447
191448
191348
191235
191023
190936
190961
191083
191181
191227
191371
191479
191412
191248
190935
190829
190858
191021
191146
191260
191428
191438
191288
191171
190996
190850
190901
191044
191155
191283
191406
191367
191284
191152
190964
190909
190847
191004
191183
191273
191414
191431
191339
191163
190924
190785
190778
190905
191038
191155
191346
191395
191207
191101
190941
190823
190808
190891
191033
191207
191417
191424
191244
191016
190824
190724
190707
190915
191142
191314
191504
191491
191264
191067
190843
190741
190755
190911
190990
191096
191308
191380
191242
191118
190889
190775
190715
190823
190946
191044
191247
191279
191051
190889
190774
190703
190688
190815
190920
191023
191172
191232
191102
190970
190784
190633
190570
190725
190901
191049
191241
191257
191128
190977
190801
190713
190579
190621
190777
190956
191171
191266
191077
190872
190796
190728
190652
190700
190832
190998
191157
191145
191063
190916
190722
190599
190599
190696
190778
190920
191186
191224
191059
190896
190772
190645
190601
190723
190878
190989
191178
191206
191031
190795
190601
190544
190670
190739
190812
190956
191182
191245
191133
190933
190761
190611
190545
190626
190779
190855
191168
191328
191270
191117
190860
190638
190578
190645
190820
191003
191217
191246
191105
190915
190709
190630
190678
190742
190867
190926
191140
191195
191091
190964
190790
190598
190570
190705
190835
190894
191085
191106
191113
190975
190822
190664
190530
190610
190711
190837
191147
191303
191254
191007
190751
190577
190540
190580
190658
190774
191114
191227
191226
191011
190841
190608
190512
190582
190780
190880
191066
191153
191097
190950
190693
190547
190510
190632
190886
191001
191163
191316
191266
191192
191047
190926
190783
190769
190959
191052
191320
191578
191444
191158
190868
190659
190448
190403
190422
190487
190729
190837
190762
190612
190387
190201
190222
190348
190561
190728
190919
191051
191001
190845
190695
190528
190398
190512
190759
190843
191021
191219
191201
190946
190754
190630
190580
190607
190743
190868
191017
191128
191075
190923
190691
190585
190559
190572
190703
190791
191026
191093
190990
190869
190716
190594
190494
190446
190616
190780
190994
191060
191039
190927
190724
190522
190387
190410
190502
190658
190956
191045
190982
190812
190695
190634
190480
190491
190642
190697
190904
191126
191189
190941
190755
190605
190446
190447
190527
190642
190962
191114
191060
190887
190706
190594
190510
190571
190721
190833
190936
191097
191106
190963
190795
190681
190591
190594
190738
190840
191067
191214
191200
191032
190825
190715
190531
190561
190695
190888
191071
191239
191248
191051
190854
190695
190563
190487
190701
190984
191170
191190
191193
191055
190881
190737
190592
190554
190652
190690
190854
191009
191071
191062
190870
190694
190544
190511
190621
190716
190877
191037
191093
190931
190703
190549
190490
190385
190598
190790
190935
191070
191090
190931
190723
190559
190434
190388
190492
190647
190820
190973
191014
190904
190756
190610
190402
190326
190380
190531
190796
191000
191117
190940
190631
190485
190338
190277
190441
190581
190743
190838
190920
190825
190624
190482
190385
190324
190421
190525
190672
190873
190931
190807
190652
190518
190337
190245
190315
190399
190625
190896
190971
190882
190670
190519
190396
190342
190446
190589
190754
190866
190872
190827
190647
190536
190291
190228
190298
190477
190613
190772
190923
190935
190699
190493
190291
190212
190271
190429
190587
190758
190844
190850
190710
190607
190366
190299
190361
190530
190649
190810
190905
190814
190576
190475
190309
190187
190211
190332
190555
190744
190840
190774
190601
190493
190308
190200
190288
190424
190618
190829
190824
190641
190421
190390
190289
190209
190268
190387
190544
190777
190829
190794
190642
190528
190272
190193
190272
190357
190495
190656
190690
190628
190450
190361
190291
190271
190263
190409
190575
190738
190809
190738
190586
190509
190233
190113
190188
190259
190503
190780
190830
190741
190573
190467
190258
190077
190062
190206
190452
190785
190959
190936
190688
190521
190303
190179
190266
190385
190495
190648
190754
190717
190560
190545
190406
190262
190285
190398
190540
190689
190767
190727
190560
190583
190350
190254
190303
190366
190505
190730
190836
190780
190553
190394
190202
190072
190220
190335
190586
190802
190947
190833
190690
190584
190432
190298
190330
190399
190547
190711
190862
190828
190637
190458
190267
190199
190302
190585
190675
190738
190800
190781
190572
190468
190316
190167
190168
190225
190464
190701
190927
190894
190667
190568
190421
190269
190259
190370
190514
190704
190833
190778
190563
190425
190297
190205
190217
190390
190503
190729
190830
190838
190664
190533
190383
190272
190213
190342
190515
190590
190671
190785
190739
190672
190475
190390
190347
190487
190747
190979
191107
191137
191021
190884
190629
190478
190460
190521
190654
190784
190888
190813
190506
190347
190152
189899
189788
189874
190083
190321
190517
190584
190427
190364
190276
190105
190049
190235
190408
190602
190754
190795
190649
190618
190444
190311
190292
190375
190551
190740
190812
190873
190754
190619
190392
190138
190098
190163
190394
190622
190789
190970
190895
190706
190507
190321
190260
190395
190565
190688
190745
190812
190653
190600
190480
190345
190263
190333
190473
190613
190839
190860
190712
190624
190398
190172
190152
190320
190581
190761
190888
190958
190798
190627
190416
190270
190231
190355
190603
190679
190821
190905
190750
190692
190579
190373
190290
190403
190631
190763
190860
190940
190771
190644
190564
190353
190305
190458
190632
190743
190939
191026
190880
190790
190669
190515
190507
190565
190721
190885
191017
190987
190879
190763
190644
190476
190403
190449
190634
190784
190930
191001
190956
190882
190656
190338
190242
190382
190761
190865
190993
190955
190807
190666
190532
190403
190375
190359
190515
190634
190802
190864
190765
190661
190581
190343
190245
190212
190389
190522
190697
190740
190622
190512
190441
190265
190209
190213
190363
190428
190605
190701
190581
190502
190416
190267
190187
190215
190326
190499
190679
190755
190625
190508
190391
190232
190149
190146
190294
190511
190716
190779
190649
190571
190412
190232
190129
190137
190318
190424
190617
190830
190758
190607
190469
190274
190212
190209
190377
190567
190802
190920
190785
190600
190472
190275
190189
190304
190464
190584
190791
190902
190812
190738
190552
190353
190221
190203
190395
190536
190779
190971
190891
190780
190618
190330
190192
190183
190376
190543
190723
190845
190798
190678
190534
190363
190307
190408
190548
190582
190704
190771
190716
190658
190600
190386
190228
190196
190403
190609
190833
190897
190807
190697
190576
190510
190358
190254
190376
190553
190748
190842
190754
190668
190599
190492
190325
190241
190346
190459
190654
190824
190800
190660
190616
190440
190281
190227
190419
190602
190741
190898
190863
190734
190624
190420
190220
190158
190324
190508
190655
190750
190677
190604
190536
190435
190227
190185
190384
190486
190678
190856
190820
190698
190535
190327
190142
190088
190278
190525
190752
190850
190800
190670
190491
190333
190189
190155
190310
190433
190560
190749
190729
190618
190531
190347
190167
190027
190185
190446
190637
190813
190824
190724
190590
190369
190194
190106
190262
190430
190496
190619
190637
190568
190617
190528
190386
190228
190336
190498
190636
190742
190748
190653
190547
190370
190189
190095
190269
190473
190684
190806
190747
190629
190550
190430
190290
190215
190339
190439
190514
190706
190722
190586
190627
190529
190330
190143
190256
190411
190569
190780
190707
190615
190516
190411
190216
190085
190223
190369
190530
190639
190618
190590
190424
190251
190062
190017
190200
190434
190600
190715
190734
190650
190483
190342
190109
190053
190178
190323
190487
190663
190708
190601
190446
190274
190122
190144
190255
190375
190521
190673
190660
190669
190515
190378
190251
190135
190254
190450
190586
190762
190800
190811
190660
190481
190334
190349
190497
190719
190826
190887
190862
190732
190515
190264
190034
189790
189818
190011
190138
190268
190325
190265
190090
189976
189855
189820
189965
190126
190311
190505
190521
190487
190322
190257
190089
189970
190032
190208
190377
190556
190560
190574
190467
190304
190115
190032
190102
190247
190327
190455
190452
190460
190428
190261
190015
189881
190000
190147
190328
190533
190658
190586
190398
190295
190127
189998
190039
190193
190334
190507
190536
190498
190366
190222
190124
189989
190046
190251
190355
190502
190515
190519
190422
190310
190115
189984
190098
190250
190328
190514
190557
190563
190435
190318
190118
190054
190133
190269
190389
190564
190700
190604
190433
190322
190154
190095
190237
190338
190363
190536
190672
190688
190588
190481
190339
190141
190199
190295
190439
190647
190727
190747
190599
190419
190214
190032
190174
190354
190485
190647
190776
190723
190542
190430
190205
190066
190109
190246
190372
190544
190624
190599
190449
190266
190057
189876
189957
190176
190274
190390
190452
190487
190391
190296
190086
189875
189860
189978
190074
190186
190356
190439
190326
190240
190044
189840
189854
190021
190155
190280
190287
190313
190228
190219
190126
189918
189850
189979
190089
190272
190396
190454
190327
190194
190034
189869
189829
189970
190124
190277
190443
190528
190362
190206
190037
189823
189846
190040
190195
190360
190416
190494
190312
190151
189984
189821
189854
190042
190191
190304
190457
190574
190407
190305
190158
189945
189983
190108
190228
190420
190535
190592
190478
190358
190192
190011
190032
190119
190249
190399
190492
190565
190425
190330
190185
189930
189838
189946
190164
190475
190659
190730
190625
190442
190270
190048
189997
190134
190270
190418
190531
190600
190428
190258
190123
189985
190014
190188
190342
190450
190539
190605
190518
190334
190185
189972
189913
190025
190221
190422
190491
190540
190459
190390
190169
189866
189832
190027
190312
190439
190596
190671
190511
190327
190163
189987
189957
190079
190271
190385
190481
190573
190461
190258
190090
189873
189872
190019
190148
190267
190383
190496
190440
190279
190203
189925
189906
190050
190158
190222
190300
190402
190339
190157
189974
189818
189876
190078
190148
190215
190339
190501
190463
190292
190124
189884
189738
189819
190105
190342
190464
190535
190418
190219
190065
189863
189910
189984
190174
190345
190484
190624
190537
190272
190126
189941
189887
189910
190075
190221
190364
190440
190457
190420
190303
190040
189947
189984
190177
190305
190416
190493
190521
190385
190222
189990
189967
190011
190192
190295
190443
190582
190498
190388
190264
190000
190001
190102
190273
190373
190460
190560
190502
190303
190169
189976
189973
190050
190132
190204
190403
190610
190559
190418
190287
190058
189904
189975
190124
190285
190427
190623
190532
190391
190289
190094
189991
190029
190261
190327
190383
190521
190540
190397
190289
190069
190003
190059
190202
190372
190493
190583
190521
190381
190399
190186
190024
190128
190215
190371
190515
190680
190661
190538
190411
190223
190146
190172
190332
190524
190726
190943
190905
190719
190524
190342
190231
190291
190349
190383
190474
190523
190403
190214
190046
189801
189704
189777
189905
190000
190066
190216
190261
190135
190032
189907
189817
189821
190021
190198
190387
190549
190549
190343
190251
190020
190022
190133
190186
190296
190403
190524
190502
190417
190357
190176
189997
189954
190037
190166
190377
190634
190711
190541
190390
190089
189970
189980
190190
190305
190392
190598
190625
190418
190299
190159
190022
190055
190171
190260
190409
190626
190665
190491
190368
190186
190058
189962
190112
190280
190455
190592
190653
190532
190410
190258
190160
190080
190200
190368
190511
190674
190749
190566
190418
190228
190120
190097
190237
190406
190581
190725
190683
190533
190410
190219
190201
190198
190303
190472
190505
190638
190740
190684
190645
190348
190174
190165
190359
190525
190670
190916
190945
190745
190607
190395
190184
190181
190308
190500
190585
190765
190859
190740
190617
190390
190271
190307
190366
190493
190552
190737
190824
190692
190492
190321
190148
190147
190270
190312
190413
190573
190646
190627
190505
190398
190181
190081
190127
190320
190444
190663
190811
190683
190532
190374
190175
190135
190241
190359
190461
190684
190795
190705
190582
190409
190283
190156
190229
190395
190510
190774
190845
190778
190589
190393
190239
190177
190283
190502
190633
190823
190881
190848
190714
190526
190386
190335
190439
190588
190679
190902
190968
190914
190746
190590
190495
190444
190534
190651
190706
190889
191014
190981
190804
190641
190473
190432
190503
190644
190803
191093
191127
191036
190908
190799
190601
190504
190513
190650
190696
190873
190980
190998
190880
190779
190618
190524
190591
190699
190740
190939
191066
191033
190920
190751
190559
190422
190483
190660
190849
191159
191276
191099
190941
190721
190527
190465
190546
190762
190834
190998
191108
191052
190977
190847
190773
190626
190616
190723
190813
191068
191247
191174
190968
190755
190581
190491
190596
190724
190830
191090
191235
191211
191024
190825
190701
190566
190590
190705
190826
191010
191162
191144
191015
190844
190663
190594
190630
190779
190817
191006
191191
191152
191073
190891
190704
190596
190590
190773
190860
191021
191196
191228
191050
190882
190737
190622
190615
190721
190800
190990
191102
191185
191084
190935
190802
190642
190667
190807
190901
191111
191261
191216
191030
190864
190752
190651
190669
190799
190849
191025
191223
191164
190984
190879
190836
190696
190692
190859
190933
191139
191264
191245
191021
190831
190755
190680
190686
190844
190927
191096
191375
191512
191261
191073
190923
190758
190691
190856
190979
191143
191298
191318
191156
191057
190905
190722
190778
190991
191173
191366
191462
191479
191297
191066
190939
190851
190847
191031
191136
191305
191485
191412
191255
191126
190995
190841
190818
190987
191059
191224
191367
191493
191437
191329
191134
190957
190842
190936
191109
191361
191488
191465
191309
191095
190990
190913
190980
191114
191199
191390
191606
191654
191507
191289
191067
190887
190847
191074
191219
191350
191454
191475
191406
191348
191232
191019
190948
191027
191201
191394
191548
191541
191363
191256
191189
191046
191079
191137
191207
191420
191586
191634
191562
191478
191454
191275
191229
191338
191507
191725
191857
191821
191663
191409
191254
191057
190932
190895
190884
190977
191215
191353
191281
191042
190941
190729
190691
190856
190953
191159
191290
191334
191279
191206
191271
191126
191038
191087
191295
191477
191658
191710
191583
191400
191258
191064
191000
191111
191240
191484
191672
191633
191595
191418
191315
191202
191070
191064
191194
191372
191605
191742
191662
191472
191327
191177
191088
191087
191191
191387
191590
191663
191744
191545
191376
191148
191091
191204
191298
191396
191615
191680
191570
191361
191339
191259
191093
191165
191298
191438
191645
191782
191727
191478
191309
191069
191068
191198
191289
191456
191632
191716
191702
191499
191392
191199
191185
191441
191488
191517
191683
191800
191738
191619
191487
191267
191188
191153
191262
191396
191679
191894
191790
191595
191554
191399
191238
191248
191339
191478
191706
191798
191783
191636
191532
191327
191145
191159
191345
191500
191665
191795
191761
191615
191526
191337
191178
191231
191334
191385
191563
191743
191705
191477
191330
191166
191088
191120
191271
191354
191576
191740
191688
191480
191357
191175
191072
191080
191188
191343
191483
191585
191480
191319
191283
191265
191135
191117
191212
191333
191504
191611
191657
191471
191448
191373
191166
191104
191216
191397
191543
191732
191727
191516
191436
191243
191109
191121
191186
191388
191591
191765
191740
191505
191439
191295
191128
191187
191265
191384
191647
191823
191835
191610
191510
191430
191301
191240
191307
191512
191661
191830
191813
191627
191614
191432
191253
191248
191353
191524
191692
191813
191838
191632
191545
191458
191291
191251
191413
191586
191727
191851
191828
191591
191496
191426
191351
191293
191402
191505
191700
191850
191804
191767
191718
191548
191363
191243
191315
191534
191767
191837
191853
191665
191529
191366
191228
191274
191384
191718
191816
191866
191860
191700
191624
191500
191313
191238
191351
191514
191666
191836
191854
191667
191519
191355
191266
191348
191360
191494
191617
191800
191881
191710
191611
191447
191298
191213
191211
191336
191517
191736
191862
191768
191594
191446
191262
191197
191223
191379
191533
191642
191674
191600
191509
191356
191159
191084
191171
191439
191667
191831
191838
191562
191388
191260
191160
191110
191099
191329
191493
191745
191792
191640
191484
191319
191122
191038
191096
191319
191529
191643
191644
191500
191381
191304
191138
191058
191086
191269
191420
191547
191563
191387
191205
191183
191115
191132
191167
191316
191385
191547
191596
191507
191374
191212
191039
191019
191012
191242
191379
191526
191643
191496
191326
191238
191080
190966
190888
191046
191353
191622
191706
191572
191407
191278
191091
190923
190947
191165
191323
191505
191626
191608
191409
191246
190994
190933
190948
191196
191463
191635
191734
191601
191434
191333
191120
191002
190980
191155
191371
191559
191668
191525
191377
191240
191032
190882
190910
191120
191295
191484
191605
191504
191372
191198
191007
190957
190965
191133
191314
191414
191511
191357
191207
191150
191047
191012
191034
191171
191331
191498
191594
191492
191303
191097
190994
190823
190913
191089
191238
191398
191600
191559
191338
191200
191020
190930
190911
191093
191265
191454
191570
191483
191358
191225
191087
191036
191164
191376
191433
191567
191596
191422
191227
191043
190889
190781
190667
190680
190784
190945
191024
190942
190765
190577
190448
190419
190411
190613
190811
190971
191130
191084
191012
190953
190827
190646
190598
190731
190814
190993
191148
191086
191096
190946
190758
190663
190636
190753
190873
191014
191147
191091
190954
190857
190747
190592
190453
190728
190979
191091
191152
191137
191036
190901
190724
190509
190390
190580
190740
191014
191281
191236
191004
190875
190721
190609
190545
190645
190729
190862
191061
191142
190967
190803
190627
190545
190490
190685
190874
190992
191092
191126
191006
190814
190621
190429
190374
190662
190857
190992
191144
191132
190988
190873
190673
190506
190343
190557
190818
191009
191164
191198
191046
190893
190703
190552
190507
190650
190854
190994
191101
191105
190895
190815
190684
190605
190524
190619
190817
190955
191109
191150
190977
190796
190579
190425
190309
190455
190655
190855
191019
191044
190963
190797
190637
190439
190353
190446
190566
190696
190900
190854
190734
190582
190513
190299
190143
190220
190364
190478
190757
190927
190870
190588
190315
190177
190053
190152
190318
190469
190603
190608
190510
190406
190329
190114
190030
190189
190322
190430
190553
190563
190517
190367
190203
190057
189998
190081
190283
190418
190593
190599
190482
190292
190127
189972
189905
190053
190207
190282
190468
190466
190414
190280
190215
189967
189810
189917
190120
190347
190551
190499
190432
190277
190139
189957
189901
190004
190178
190324
190482
190492
190396
190276
190130
189929
189862
190042
190201
190375
190510
190504
190532
190313
190194
190015
189864
189904
190073
190192
190354
190424
190430
190338
190246
190008
189870
189922
190075
190182
190349
190428
190441
190321
190179
189980
189818
189890
190017
190173
190374
190417
190406
190264
190092
189888
189793
189796
190027
190231
190439
190490
190364
190177
190105
189932
189761
189830
189928
190035
190206
190264
190344
190220
190093
189866
189663
189737
189893
190016
190247
190392
190345
190137
189966
189819
189757
189846
189889
190000
190202
190328
190255
190144
189993
189752
189566
189626
189794
189981
190243
190367
190254
190062
189912
189736
189525
189569
189737
189884
190143
190274
190250
190087
189962
189761
189582
189631
189794
189906
190071
190190
190187
190047
189890
189774
189619
189647
189724
189883
190180
190273
190231
190041
189914
189716
189530
189572
189741
189931
190219
190302
190244
190105
189923
189760
189575
189574
189652
189810
190063
190293
190338
190165
190040
189883
189687
189716
189887
189971
190119
190182
190276
190130
189986
189802
189605
189615
189811
189937
190065
190099
190206
190209
190082
189967
189743
189694
189848
189996
190183
190261
190212
190108
190045
189903
189635
189756
189933
189942
190116
190258
190280
190102
189935
189749
189625
189682
189759
189896
190085
190237
190249
190072
190014
189860
189686
189623
189746
189956
190079
190126
190170
189987
189836
189711
189511
189494
189676
189817
189976
190121
190207
190056
189900
189742
189539
189531
189652
189732
189898
190015
190018
189918
189793
189588
189371
189416
189646
189864
189938
190005
190047
189954
189841
189692
189504
189483
189605
189775
189945
190056
190178
190038
189957
189829
189642
189632
189757
189929
190056
190113
190205
190045
189795
189604
189287
189118
189178
189260
189449
189578
189646
189466
189282
189152
189026
189063
189164
189291
189423
189570
189693
189694
189574
189515
189260
189207
189356
189514
189633
189730
189778
189665
189575
189444
189308
189231
189318
189486
189640
189763
189820
189639
189506
189374
189163
189128
189282
189468
189593
189674
189811
189807
189604
189483
189307
189301
189365
189471
189609
189771
189828
189785
189669
189488
189170
189174
189313
189551
189662
189685
189794
189858
189752
189576
189364
189341
189413
189515
189608
189723
189826
189776
189692
189636
189384
189360
189439
189595
189782
189879
189971
189929
189762
189656
189431
189314
189398
189621
189813
189970
190027
189979
189811
189745
189493
189380
189386
189606
189817
190022
190147
190108
189884
189759
189530
189399
189404
189583
189755
189889
189979
190011
189898
189804
189568
189453
189500
189672
189720
189764
189843
189825
189696
189605
189344
189248
189282
189430
189603
189765
189862
189753
189619
189530
189300
189186
189176
189302
189498
189580
189732
189660
189531
189413
189175
189121
189079
189290
189369
189563
189701
189616
189450
189302
189015
188864
188915
189130
189353
189516
189621
189565
189430
189283
189011
188945
189006
189109
189173
189271
189454
189481
189354
189222
189065
188977
189010
189123
189207
189356
189492
189375
189303
189188
189001
188879
188956
189118
189227
189382
189558
189557
189327
189245
189062
188932
188999
189082
189176
189341
189553
189517
189349
189273
189084
188919
188923
189064
189246
189422
189601
189584
189407
189243
188975
188834
188879
189037
189233
189363
189489
189481
189320
189149
188903
188730
188775
189109
189338
189394
189583
189560
189366
189200
188963
188840
188825
189008
189167
189317
189501
189482
189315
189206
189025
188861
188868
188982
189043
189241
189501
189492
189369
189205
188902
188788
188871
189051
189186
189267
189387
189388
189145
189029
188923
188837
188920
189112
189220
189324
189432
189443
189383
189154
188915
188753
188733
188979
189155
189223
189403
189399
189257
189098
188985
188871
188807
188982
189100
189137
189314
189411
189302
189170
188932
188857
188806
188937
189059
189170
189379
189399
189322
189154
188929
188854
188795
188870
189048
189242
189509
189562
189353
189172
188979
188832
188719
188774
188943
189139
189414
189500
189333
189167
188995
188871
188794
188946
189161
189254
189423
189386
189237
189139
188995
188805
188786
188878
189011
189205
189491
189592
189514
189311
189076
188932
188860
188931
189076
189199
189406
189481
189389
189302
189090
188938
188885
188887
189063
189294
189503
189520
189431
189283
189100
188912
188896
188969
189065
189063
189220
189444
189484
189398
189166
188986
188887
188980
189134
189201
189460
189510
189386
189252
189117
189002
188946
189026
189223
189279
189471
189533
189433
189259
189141
189070
188997
189081
189200
189282
189492
189575
189502
189347
189138
188963
188896
188980
189168
189266
189482
189549
189515
189506
189376
189225
189183
189255
189430
189595
189865
189999
189915
189717
189594
189434
189396
189358
189436
189511
189672
189686
189493
189279
189102
188932
188798
188741
188873
189045
189270
189419
189431
189330
189172
189075
188986
189032
189150
189252
189574
189721
189648
189472
189294
189228
189190
189172
189325
189448
189587
189597
189547
189441
189323
189137
189000
189032
189239
189324
189535
189626
189533
189488
189351
189139
189028
189044
189228
189310
189518
189644
189610
189401
189172
189028
188942
189044
189220
189356
189570
189704
189627
189470
189287
189119
189048
189062
189130
189235
189475
189669
189633
189476
189237
189060
188927
188964
189141
189326
189538
189613
189574
189519
189360
189174
188978
189038
189202
189309
189514
189690
189631
189479
189281
189054
188929
189017
189207
189398
189674
189728
189706
189607
189436
189293
189146
189112
189270
189390
189517
189677
189716
189521
189353
189224
189055
189072
189278
189426
189612
189722
189738
189568
189347
189223
189043
189017
189097
189217
189431
189571
189587
189503
189243
189132
189023
189058
189158
189206
189305
189423
189439
189349
189216
189122
188960
188980
189125
189117
189254
189476
189536
189351
189134
188937
188762
188702
188865
189100
189299
189489
189461
189244
189074
188982
188906
188841
188989
189048
189137
189257
189304
189250
189096
189022
188895
188758
188881
188992
189158
189329
189408
189381
189251
189031
188886
188824
188886
188943
189077
189216
189314
189248
189083
189021
188904
188819
188908
188991
189180
189356
189472
189279
189021
188846
188679
188704
188864
189043
189183
189307
189419
189347
189060
188836
188718
188756
188934
189036
189224
189407
189518
189349
188982
188865
188796
188780
188919
189058
189269
189423
189388
189289
189113
189067
188961
188836
188847
188937
189161
189424
189463
189404
189233
189081
188894
188767
188861
189050
189279
189537
189600
189442
189233
189098
188932
188882
188929
189081
189307
189495
189495
189317
189124
189135
188947
188916
189002
189135
189298
189443
189473
189368
189140
189022
188920
188849
188958
189147
189191
189390
189434
189403
189242
189123
188906
188815
188861
188982
189232
189355
189375
189310
189153
189121
188929
188774
188839
189060
189245
189353
189415
189336
189118
188976
188820
188828
188896
188934
189086
189290
189424
189399
189167
188996
188863
188812
188854
188966
189171
189414
189426
189300
189129
189001
188816
188762
188846
189016
189201
189358
189488
189414
189184
189089
188870
188764
188810
188879
189114
189361
189453
189414
189225
189086
188933
188891
188936
189076
189208
189320
189426
189399
189205
189093
188943
188841
188904
189034
189230
189436
189455
189355
189219
189246
189049
188931
188985
189047
189163
189306
189453
189387
189250
189124
188966
188850
188878
188967
189109
189300
189391
189359
189205
189037
188881
188795
188893
189018
189154
189293
189425
189430
189207
189019
188881
188790
188853
188964
189079
189230
189333
189266
189069
188956
188840
188695
188777
188986
189125
189220
189349
189285
189114
189077
188941
188849
188832
188927
189002
189172
189352
189427
189301
189421
189244
189107
189094
189166
189298
189459
189594
189538
189276
189139
188954
188600
188487
188569
188721
188914
189085
189031
188768
188657
188556
188481
188469
188635
188848
189064
189179
189210
189028
188937
188817
188695
188719
188842
188962
189112
189242
189247
189126
189014
188873
188797
188715
188888
189070
189215
189348
189379
189186
189042
188883
188727
188685
188768
188930
189100
189274
189320
189160
189072
188895
188764
188794
188881
188944
189087
189255
189338
189181
189011
188803
188638
188573
188698
188984
189139
189310
189339
189172
189009
188876
188701
188608
188697
188887
189092
189260
189388
189162
189004
188888
188780
188731
188816
188959
189139
189411
189484
189266
189055
188897
188754
188696
188847
188984
189135
189320
189463
189354
189220
189017
188808
188777
188818
188997
189154
189355
189517
189349
189184
189051
188854
188801
188870
189077
189247
189424
189459
189290
189131
188922
188753
188782
188837
188965
189085
189287
189431
189222
189046
188878
188685
188669
188815
189014
189078
189202
189272
189076
188952
188901
188749
188698
188699
188836
188986
189209
189295
189153
189006
188842
188687
188630
188638
188861
189001
189100
189121
189047
188915
188801
188622
188608
188724
188892
188960
189083
189157
189061
188919
188799
188628
188511
188567
188771
188893
189112
189158
189002
188844
188690
188539
188586
188626
188817
188904
189039
189125
189005
188825
188745
188651
188554
188635
188818
188947
189141
189169
188987
188850
188776
188561
188478
188555
188739
188915
189145
189198
189085
188928
188712
188407
188349
188485
188736
188969
189169
189228
189116
188943
188762
188632
188454
188455
188664
188892
189095
189178
189046
188906
188787
188603
188478
188519
188692
188853
188944
189010
188922
188841
188810
188575
188426
188453
188665
188808
188987
189079
188966
188849
188735
188515
188381
188442
188642
188782
188978
189032
188797
188661
188623
188640
188521
188545
188660
188739
188885
188956
188867
188819
188742
188614
188416
188358
188573
188737
188922
189031
188935
188772
188610
188489
188359
188346
188570
188726
188885
189000
188947
188799
188644
188484
188372
188356
188597
188719
188823
188958
188893
188727
188613
188420
188236
188249
188533
188685
188793
188968
188928
188796
188625
188488
188378
188364
188548
188643
188775
188905
188931
188818
188682
188478
188397
188358
188526
188705
188838
188953
188919
188797
188707
188600
188487
188465
188630
188726
188822
188952
188929
188840
188700
188469
188338
188276
188547
188750
188834
189011
189094
188930
188812
188593
188388
188314
188544
188759
188948
189092
189020
188881
188726
188604
188411
188394
188598
188708
188950
189106
189072
188871
188688
188550
188434
188429
188678
188831
188932
189033
188968
188822
188674
188591
188543
188529
188587
188660
188904
189111
189094
188938
188802
188647
188445
188388
188584
188753
188978
189022
189040
188924
188764
188619
188462
188396
188585
188793
189047
189224
189234
189137
189040
188893
188726
188679
188821
189033
189226
189446
189476
189350
189214
189041
189003
188922
189017
189115
189161
189262
189159
188942
188782
188570
188304
188195
188378
188648
188790
188902
188962
188930
188796
188668
188571
188493
188706
188846
188979
189141
189157
189115
189014
188913
188732
188613
188777
188963
189135
189270
189256
189147
189017
188907
188724
188643
188747
188890
189007
189226
189320
189192
189108
188970
188705
188668
188753
188840
189008
189121
189097
189001
188879
188805
188665
188602
188657
188870
189155
189345
189246
189142
188958
188836
188634
188499
188614
188782
188974
189223
189237
189233
189079
188895
188625
188533
188693
188886
189051
189171
189210
189158
189012
188777
188588
188585
188668
188833
189012
189170
189139
189039
188943
188790
188648
188677
188718
188873
189027
189191
189223
189182
189070
188913
188708
188526
188619
188842
189022
189230
189273
189196
189003
188816
188629
188546
188691
188810
188904
189098
189241
189172
188939
188825
188647
188529
188598
188782
188872
188981
189057
189068
188911
188778
188526
188314
188411
188584
188731
188864
188924
188902
188845
188713
188485
188351
188438
188557
188661
188776
188840
188840
188772
188603
188351
188248
188302
188425
188611
188807
188866
188880
188730
188610
188419
188205
188296
188495
188597
188794
188900
188878
188690
188546
188368
188181
188289
188440
188581
188800
188843
188798
188696
188564
188421
188265
188317
188491
188566
188725
188829
188841
188733
188617
188426
188268
188334
188456
188503
188656
188826
188873
188779
188648
188428
188362
188441
188545
188674
188839
188842
188806
188662
188520
188406
188278
188242
188444
188558
188759
188885
188871
188683
188563
188390
188232
188247
188391
188516
188699
188840
188830
188630
188487
188380
188165
188207
188426
188527
188693
188787
188828
188695
188521
188340
188123
188143
188333
188462
188564
188705
188749
188599
188481
188276
188028
188007
188182
188317
188471
188613
188832
188627
188407
188231
188057
188084
188195
188327
188486
188571
188637
188494
188343
188187
187968
187979
188201
188351
188484
188553
188685
188529
188272
188155
187950
188003
188198
188255
188435
188536
188661
188553
188413
188125
187937
187934
188046
188249
188412
188487
188593
188453
188255
188104
187943
187968
188156
188263
188371
188477
188531
188366
188168
188052
187932
187962
188143
188272
188433
188492
188549
188448
188294
188081
187874
187890
188000
188133
188298
188440
188556
188516
188362
188176
187935
187929
188019
188240
188374
188444
188507
188432
188261
188059
187826
187775
187976
188191
188347
188462
188521
188382
188233
188048
187852
187858
187959
188041
188281
188487
188489
188366
188168
187964
187805
187881
188049
188204
188242
188368
188516
188392
188211
188075
187868
187811
187898
188024
188139
188232
188287
188306
188190
188035
187800
187783
187838
188040
188216
188333
188424
188327
188160
188047
187868
187811
187948
188051
188372
188625
188691
188674
188552
188340
188072
188053
188083
188208
188231
188383
188402
188235
187997
187755
187433
187378
187443
187641
187785
187977
188095
188053
187882
187810
187643
187621
187735
187818
187946
188250
188424
188353
188209
188037
187844
187842
187917
188006
188110
188207
188274
188286
188238
188139
187905
187779
187849
187984
188107
188276
188424
188357
188197
188018
187730
187636
187722
187949
188215
188439
188474
188260
188082
188042
187908
187869
187936
188051
188158
188215
188329
188317
188134
188033
187846
187775
187823
187948
188102
188211
188372
188312
188235
188136
187865
187785
187825
187904
188029
188192
188371
188360
188237
188075
187832
187690
187725
187887
188087
188297
188384
188291
188140
188020
187849
187786
187855
187971
188058
188276
188441
188424
188248
188104
187868
187753
187898
188020
188092
188310
188445
188380
188244
188115
187878
187798
187835
187926
187995
188096
188319
188375
188177
188024
187827
187726
187705
187804
187879
187941
188120
188249
188178
188034
187768
187646
187681
187796
187922
188056
188210
188196
188082
187921
187715
187593
187559
187766
187964
188055
188172
188168
188029
187850
187614
187533
187509
187581
187779
187948
188277
188384
188159
187981
187733
187600
187683
187797
187822
187887
188033
188077
187997
187926
187766
187649
187652
187739
187879
188006
188156
188231
188040
187820
187585
187392
187465
187658
187811
187967
188171
188167
187979
187803
187583
187448
187435
187623
187748
187889
188113
188229
188083
188019
187758
187603
187546
187680
187815
187916
188076
188202
188050
187906
187698
187577
187570
187711
187870
188010
188168
188186
188021
187855
187711
187578
187574
187692
187894
187946
188021
188084
187992
187956
187806
187699
187646
187724
187841
187961
188123
188229
188128
187945
187716
187587
187557
187725
187816
188024
188197
188175
188056
187928
187675
187517
187511
187715
187895
188016
188206
188242
188075
187910
187744
187571
187535
187610
187787
187898
188144
188335
188215
187976
187765
187596
187540
187641
187779
187894
188087
188152
188017
187885
187720
187530
187481
187629
187935
188064
188105
188096
187999
187863
187662
187515
187460
187536
187682
187778
187966
188049
188040
187824
187614
187492
187469
187518
187660
187766
187962
188031
187911
187714
187521
187330
187344
187547
187789
187851
188064
188044
187909
187763
187598
187457
187421
187492
187667
187794
187900
187980
188019
187810
187603
187502
187408
187467
187614
187798
188040
187993
187930
187777
187617
187478
187342
187446
187649
187787
187929
188001
187965
187757
187582
187519
187529
187579
187683
187740
187873
187950
187802
187628
187558
187514
187390
187497
187709
187793
188020
188102
187985
187791
187623
187482
187426
187473
187584
187680
187846
187935
187873
187715
187590
187534
187444
187441
187552
187636
187771
187929
188013
187914
187788
187580
187439
187447
187573
187682
187874
188028
188016
187859
187693
187582
187462
187500
187663
187750
188000
188181
188230
188080
187978
187856
187739
187780
187918
188033
188262
188299
188224
188116
187886
187593
187357
187277
187411
187441
187650
187791
187718
187506
187291
187200
187219
187298
187469
187574
187882
188023
187908
187795
187675
187579
187465
187486
187616
187714
187957
188106
188031
187880
187717
187588
187504
187505
187671
187767
187971
188084
188034
187900
187680
187522
187475
187540
187650
187709
187875
188047
188070
187828
187631
187480
187341
187385
187506
187646
187871
188031
188084
187925
187739
187561
187385
187419
187556
187708
187951
188017
188028
187936
187712
187568
187483
187398
187523
187624
187823
187972
187913
187793
187714
187632
187469
187402
187505
187579
187810
188061
188153
188034
187861
187699
187571
187575
187717
187770
187885
188099
188117
188052
187882
187723
187568
187578
187782
187838
188030
188171
188153
188013
187878
187699
187590
187642
187743
187845
187994
188146
188097
187943
187864
187661
187510
187503
187660
187782
187907
188059
188085
187939
187762
187592
187488
187426
187513
187643
187811
187916
187902
187834
187739
187607
187418
187324
187439
187534
187717
187862
187886
187717
187535
187399
187224
187197
187329
187550
187676
187844
187910
187828
187513
187315
187182
187182
187293
187455
187657
187805
187825
187653
187467
187354
187216
187202
187311
187459
187568
187694
187770
187670
187469
187312
187126
186999
187211
187457
187657
187791
187783
187656
187492
187363
187143
187111
187272
187426
187710
187917
187914
187698
187518
187410
187213
187156
187302
187416
187581
187767
187841
187740
187448
187318
187208
187147
187251
187359
187467
187662
187722
187651
187479
187429
187308
187247
187278
187279
187426
187731
187945
187786
187551
187398
187236
187139
187216
187345
187501
187696
187711
187692
187483
187370
187207
187197
187313
187426
187576
187664
187706
187664
187455
187301
186991
186834
186947
187194
187621
187966
187882
187742
187509
187345
187191
187134
187150
187249
187406
187636
187688
187667
187559
187391
187204
187107
187130
187222
187420
187626
187733
187706
187423
187279
187062
186981
187010
187125
187358
187491
187493
187480
187406
187360
187131
187030
187076
187213
187340
187492
187576
187450
187224
187158
187080
187007
187041
187142
187213
187356
187506
187490
187237
187130
186954
186854
186945
187066
187280
187418
187522
187420
187190
187084
186908
186793
186971
187120
187311
187399
187478
187381
187205
187103
186914
186737
186785
186910
187047
187313
187406
187325
187117
187075
186897
186801
186930
186999
187120
187248
187385
187282
187138
187022
186863
186797
186844
186958
187095
187238
187278
187166
187026
187030
186935
186790
186847
186914
187049
187216
187307
187196
187002
186914
186752
186677
186742
186927
187093
187201
187312
187307
187108
187023
186823
186656
186700
186773
186889
187160
187313
187283
187069
186918
186720
186624
186707
186846
186973
187144
187270
187173
186986
186905
186855
186777
186755
186808
186897
187045
187139
187135
186960
186857
186645
186552
186583
186794
187021
187167
187282
187246
187074
186903
186748
186620
186630
186701
186825
186968
187099
187129
186990
186923
186807
186662
186640
186691
186820
187025
187185
187192
186952
186864
186802
186696
186627
186685
186903
187057
187246
187260
187016
186945
186819
186796
186891
186947
187159
187304
187424
187413
187291
187205
186980
186790
186806
186853
186970
187057
187062
187023
186786
186632
186417
186224
186156
186288
186504
186798
186886
186950
186791
186693
186589
186435
186353
186486
186748
186991
187196
187210
186982
186842
186691
186508
186479
186624
186791
186956
187090
187202
187040
186854
186735
186643
186669
186746
186867
186987
187140
187147
186984
186839
186727
186570
186513
186583
186790
187018
187103
187140
186987
186854
186755
186600
186516
186626
186789
186909
187057
187158
187002
186915
186825
186690
186609
186678
186883
186904
187153
187245
187088
186933
186767
186649
186636
186650
186796
187000
187184
187210
187139
186962
186839
186679
186636
186710
186870
187064
187255
187290
187166
187040
186942
186765
186678
186709
186900
187018
187224
187310
187172
187051
187019
186829
186779
186840
187003
187136
187365
187335
187182
186998
186832
186682
186718
186780
186918
187043
187233
187216
187061
186978
186867
186764
186747
186784
186883
186959
187147
187186
187035
186934
186822
186650
186614
186633
186658
186749
186962
187071
187010
186911
186789
186589
186474
186527
186697
186821
186915
186974
186935
186751
186573
186412
186305
186348
186592
186708
186914
186991
186924
186763
186617
186408
186344
186342
186572
186720
186906
186954
186805
186676
186527
186364
186367
186382
186496
186591
186819
186929
186836
186767
186636
186380
186206
186217
186457
186634
186898
186969
186751
186611
186562
186431
186278
186229
186431
186606
186855
186944
186846
186683
186579
186390
186277
186282
186472
186552
186744
186869
186739
186644
186581
186440
186296
186315
186485
186624
186754
186872
186781
186618
186512
186347
186235
186232
186454
186597
186781
186892
186830
186659
186502
186399
186307
186277
186407
186566
186695
186799
186743
186708
186598
186314
186226
186202
186340
186462
186641
186836
186818
186653
186592
186423
186303
186243
186377
186490
186643
186756
186736
186618
186521
186369
186302
186336
186512
186617
186769
186847
186732
186589
186449
186269
186154
186156
186347
186397
186575
186784
186728
186618
186556
186368
186240
186184
186344
186514
186617
186752
186755
186535
186393
186238
186090
186136
186313
186419
186550
186689
186652
186550
186509
186382
186186
186114
186278
186395
186540
186692
186642
186495
186408
186273
186089
186025
186216
186409
186591
186649
186620
186489
186347
186270
186189
186162
186279
186390
186509
186665
186731
186559
186410
186233
186093
186050
186154
186356
186550
186635
186614
186515
186412
186272
186228
186146
186280
186445
186557
186704
186667
186523
186436
186336
186112
186068
186265
186421
186542
186684
186711
186627
186499
186289
186140
186080
186254
186406
186558
186725
186782
186522
186258
186229
186203
186161
186377
186474
186591
186788
186753
186603
186447
186350
186195
186072
186199
186489
186614
186763
186770
186672
186554
186402
186250
186160
186235
186385
186544
186672
186692
186584
186504
186375
186214
186125
186224
186306
186446
186649
186662
186594
186511
186293
186148
186147
186327
186490
186605
186737
186707
186630
186437
186306
186156
186050
186173
186361
186540
186703
186681
186707
186606
186399
186258
186164
186283
186437
186607
186799
186871
186809
186725
186660
186492
186417
186506
186573
186715
186863
186797
186600
186353
186200
185922
185878
185982
186108
186177
186310
186371
186280
186165
186056
185883
185782
185914
186097
186246
186435
186539
186517
186388
186349
186204
186059
186114
186274
186390
186560
186597
186535
186417
186379
186208
186061
186154
186327
186460
186663
186704
186642
186446
186326
186145
186054
186150
186306
186472
186676
186712
186604
186474
186419
186248
186157
186288
186404
186540
186682
186690
186664
186523
186467
186276
186155
186188
186338
186499
186761
186771
186652
186529
186435
186252
186112
186184
186364
186439
186603
186681
186696
186577
186406
186190
186082
186221
186372
186465
186609
186702
186665
186613
186559
186383
186195
186248
186400
186554
186707
186847
186888
186761
186666
186426
186237
186260
186477
186602
186734
186870
186852
186693
186584
186455
186252
186357
186583
186653
186716
186801
186821
186752
186760
186623
186383
186399
186499
186580
186792
186934
186971
186829
186632
186424
186249
186300
186519
186652
186829
186868
186842
186754
186638
186434
186292
186347
186471
186605
186759
186795
186783
186698
186525
186379
186212
186251
186426
186508
186651
186707
186675
186605
186541
186369
186222
186239
186323
186402
186569
186661
186738
186716
186556
186298
186088
186130
186382
186567
186696
186805
186787
186616
186472
186345
186136
186125
186289
186428
186555
186669
186752
186645
186441
186233
186092
186116
186306
186391
186573
186724
186742
186625
186521
186368
186130
186116
186291
186436
186569
186662
186642
186598
186482
186313
186186
186179
186285
186408
186539
186680
186701
186603
186501
186310
186232
186240
186335
186431
186539
186651
186732
186611
186554
186362
186152
186158
186379
186507
186610
186680
186754
186684
186642
186446
186225
186214
186340
186488
186556
186633
186763
186714
186643
186449
186142
186132
186282
186479
186696
186890
186995
186787
186567
186379
186188
186227
186458
186564
186727
186868
186922
186788
186691
186527
186344
186322
186504
186673
186842
186826
186811
186752
186685
186613
186422
186421
186559
186685
186785
186858
186889
186770
186677
186599
186499
186496
186573
186681
186810
186938
187067
186949
186793
186692
186463
186424
186535
186740
186953
187069
187056
186898
186778
186572
186439
186578
186677
186872
186983
187068
187143
187016
186805
186705
186583
186637
186663
186837
186986
187102
187183
187083
186859
186638
186488
186464
186679
186949
187053
187118
187167
187094
186978
186880
186739
186683
186750
186875
187041
187195
187270
187180
187001
186868
186707
186756
186783
186961
187157
187325
187418
187327
187135
187041
186837
186800
186959
187144
187242
187331
187453
187366
187167
187100
186949
186948
187025
187103
187233
187386
187605
187630
187473
187293
187058
187020
187138
187348
187499
187579
187652
187577
187353
187220
187082
187207
187285
187397
187505
187694
187818
187769
187671
187544
187337
187298
187353
187462
187570
187690
187882
187828
187710
187665
187437
187408
187529
187694
187895
188014
188055
188064
187909
187734
187528
187436
187544
187721
187873
188013
188223
188245
188028
187909
187766
187679
187767
187927
188010
188129
188288
188259
188107
187984
187790
187813
187920
188080
188224
188397
188613
188613
188459
188349
188186
188183
188250
188410
188568
188658
188815
188757
188562
188399
188186
188113
188123
188179
188185
188255
188396
188290
188128
188052
187930
187807
187852
188066
188248
188426
188623
188671
188506
188446
188325
188224
188275
188455
188594
188702
188849
188773
188669
188570
188350
188237
188315
188506
188641
188779
188973
188960
188803
188685
188484
188416
188477
188622
188781
188885
189015
188997
188787
188688
188476
188500
188727
188823
188864
188934
189087
189110
188997
188859
188638
188557
188622
188805
188902
188963
189026
189038
188991
188992
188889
188771
188734
188881
189002
189087
189257
189279
189155
189058
188900
188796
188808
188931
189093
189342
189459
189376
189215
189142
189007
188857
188885
189044
189173
189260
189443
189492
189396
189289
189111
189051
189069
189263
189343
189439
189601
189638
189500
189329
189125
189062
189167
189315
189453
189553
189704
189707
189525
189396
189150
189052
189107
189297
189423
189466
189658
189701
189580
189403
189209
189069
189050
189171
189314
189412
189561
189692
189526
189371
189144
188979
188992
189109
189212
189248
189440
189553
189390
189302
189170
188990
188910
189067
189171
189235
189454
189489
189410
189233
188944
188828
188849
189001
189094
189189
189350
189365
189202
189067
188907
188795
188768
188882
189007
189067
189270
189297
189192
189056
188886
188731
188625
188706
188856
188949
189114
189240
189177
189040
188856
188724
188671
188722
188819
188936
189172
189175
189009
188888
188737
188595
188545
188632
188764
188909
189116
189147
188987
188789
188638
188514
188477
188562
188687
188759
189045
189079
188907
188705
188494
188379
188312
188414
188681
188717
188886
188991
188871
188660
188452
188263
188226
188349
188474
188609
188807
188804
188628
188424
188295
188183
188154
188186
188349
188499
188719
188723
188648
188450
188232
188124
188116
188123
188210
188259
188445
188515
188456
188376
188183
188012
187934
188006
188163
188243
188475
188557
188457
188202
188004
187791
187698
187760
187939
188106
188385
188395
188357
188177
187931
187712
187626
187663
187710
187855
188154
188176
188066
187909
187697
187489
187462
187587
187778
187863
187964
187983
187890
187710
187520
187401
187371
187424
187547
187631
187766
187874
187783
187647
187473
187271
187245
187295
187368
187384
187580
187724
187684
187446
187276
187098
187010
187047
187205
187379
187561
187632
187524
187366
187126
186993
186994
187010
187063
187062
187321
187464
187514
187354
187171
186899
186818
186829
186959
187070
187205
187342
187332
187193
186963
186802
186718
186766
186872
186914
187096
187177
187141
187061
186917
186656
186505
186518
186698
186836
187029
187179
187143
187046
186892
186688
186491
186476
186652
186717
186941
187117
187016
186803
186651
186492
186342
186387
186568
186603
186784
186996
186968
186781
186605
186425
186281
186323
186455
186550
186698
186833
186803
186652
186495
186441
186300
186277
186372
186422
186639
186860
186794
186599
186425
186270
186061
186077
186273
186355
186474
186633
186650
186553
186379
186234
186082
186079
186194
186239
186424
186559
186559
186376
186225
186035
185964
186030
186153
186257
186398
186484
186471
186350
186228
186083
185934
185882
185981
186091
186256
186432
186465
186289
186089
185956
185826
185786
185927
185989
186118
186275
186359
186324
186229
186061
185930
185876
186038
186186
186402
186473
186480
186378
186142
186043
185888
185724
185765
185894
186079
186174
186128
185946
185613
185387
185191
185136
185248
185366
185671
185853
185942
185864
185602
185422
185359
185330
185558
185667
185777
185945
186008
185918
185783
185629
185404
185334
185450
185641
185803
185939
185981
185835
185662
185522
185410
185284
185450
185613
185796
185919
185970
185861
185629
185445
185241
185143
185239
185413
185639
185885
185919
185738
185491
185327
185156
185077
185258
185307
185555
185749
185714
185567
185462
185343
185218
185140
185161
185270
185523
185769
185808
185702
185455
185295
185148
185175
185297
185301
185391
185615
185638
185532
185286
185164
185056
185076
185250
185310
185445
185624
185678
185567
185366
185243
185134
185099
185129
185209
185373
185536
185618
185637
185516
185350
185139
185070
185225
185374
185497
185618
185642
185588
185371
185326
185172
185075
185170
185268
185450
185626
185666
185559
185331
185138
184851
184792
184846
185070
185327
185514
185563
185471
185289
185200
185036
184865
184870
184941
185110
185295
185430
185390
185103
185067
184885
184733
184771
184859
185040
185328
185382
185230
185013
184944
184747
184610
184620
184800
184993
185204
185281
185177
184963
184854
184712
184609
184681
184801
184991
185156
185226
185142
184926
184848
184617
184523
184547
184694
184940
185093
185217
185114
184937
184887
184723
184631
184609
184610
184709
184958
185140
185085
185006
184953
184695
184542
184626
184775
184952
185103
185163
185115
184869
184740
184605
184566
184559
184688
184870
185056
185178
185107
184909
184817
184705
184577
184606
184729
184888
185033
185074
185040
184901
184824
184652
184529
184576
184676
184844
185035
185160
185147
184951
184872
184706
184492
184500
184650
184891
185116
185243
185139
184966
184901
184744
184529
184489
184673
184830
185044
185170
185164
184950
184846
184685
184529
184542
184664
184892
185027
185111
185082
184926
184876
184720
184535
184587
184696
184846
184991
185101
185098
184950
184834
184691
184524
184524
184660
184809
184933
185071
185200
185034
184872
184711
184518
184518
184641
184768
184919
185048
185031
184917
184830
184670
184524
184501
184626
184782
184982
185131
185184
184944
184780
184626
184509
184497
184562
184727
184900
185112
185195
184977
184830
184666
184513
184484
184611
184770
184874
184950
184934
184830
184797
184720
184599
184600
184716
184846
185048
185134
185170
184965
184810
184682
184541
184476
184594
184768
184878
184996
184954
184755
184817
184761
184622
184611
184644
184809
185052
185193
185166
184960
184844
184755
184592
184488
184641
184797
184940
185090
185182
185073
184950
184829
184677
184603
184702
184830
184990
185187
185227
185084
185037
184853
184654
184563
184624
184856
185102
185267
185252
185095
185037
184875
184743
184686
184704
184870
184990
185187
185370
185213
185046
184876
184679
184678
184781
184943
185022
185182
185262
185084
185026
184943
184738
184662
184768
184961
185062
185137
185231
185089
185002
184940
184792
184669
184723
184919
185151
185278
185362
185239
185037
184899
184778
184752
184838
184955
185082
185308
185333
185175
185050
184885
184756
184744
184769
185040
185136
185168
185220
185100
185093
185102
184869
184828
184866
185074
185308
185494
185544
185459
185330
185185
184971
184907
185003
185230
185282
185305
185292
185137
184910
184710
184477
184432
184435
184552
184665
184852
184887
184762
184712
184665
184576
184586
184611
184761
184834
185029
185097
185104
185053
184951
184850
184756
184712
184870
185056
185267
185324
185157
185005
184918
184739
184623
184693
184857
185037
185185
185254
185183
185164
185077
184850
184751
184783
184933
185072
185285
185383
185227
185061
184929
184833
184773
184783
184995
185173
185301
185364
185240
185191
185069
184955
184876
184880
185081
185186
185339
185477
185365
185240
185122
184934
184866
184929
185138
185320
185445
185542
185425
185321
185215
185063
184925
184934
185095
185247
185404
185472
185444
185401
185280
185141
185042
185048
185177
185347
185572
185727
185622
185540
185422
185231
185098
185112
185301
185411
185550
185674
185715
185543
185423
185251
185181
185116
185252
185372
185623
185833
185739
185557
185484
185300
185147
185165
185369
185471
185554
185640
185598
185488
185480
185365
185207
185121
185276
185425
185545
185638
185522
185419
185395
185208
185061
185021
185139
185362
185566
185723
185641
185469
185387
185222
185039
184993
185185
185293
185500
185728
185652
185466
185389
185210
185033
185008
185214
185407
185515
185570
185555
185460
185326
185192
185114
185072
185247
185376
185476
185621
185600
185430
185306
185238
185129
185024
185165
185356
185568
185775
185718
185485
185387
185226
185126
185154
185340
185400
185503
185617
185559
185474
185557
185426
185270
185192
185325
185428
185581
185770
185698
185540
185453
185281
185178
185169
185248
185457
185626
185738
185732
185565
185469
185352
185230
185183
185337
185445
185577
185695
185682
185558
185460
185432
185243
185147
185337
185468
185573
185661
185622
185511
185530
185502
185303
185204
185384
185483
185642
185831
185805
185710
185547
185375
185281
185175
185296
185411
185583
185774
185880
185771
185624
185447
185312
185279
185359
185516
185649
185805
185835
185738
185552
185384
185268
185203
185356
185515
185623
185827
185848
185784
185613
185526
185369
185235
185379
185594
185767
185864
185876
185862
185680
185441
185323
185269
185401
185522
185660
185882
185852
185822
185656
185503
185353
185285
185372
185540
185577
185685
185744
185724
185642
185567
185350
185295
185387
185575
185705
185868
185876
185783
185598
185476
185344
185249
185400
185581
185654
185865
185911
185828
185670
185539
185343
185223
185358
185437
185625
185864
185982
185890
185713
185597
185366
185298
185427
185506
185647
185839
185949
185939
185742
185576
185396
185357
185457
185606
185764
185865
185872
185837
185738
185651
185456
185392
185446
185623
185767
185915
185907
185831
185750
185660
185468
185379
185407
185581
185765
185967
186028
185979
185790
185642
185445
185340
185453
185710
185901
186002
186011
185999
185843
185738
185595
185475
185560
185692
185755
186008
186109
186104
185922
185774
185607
185449
185595
185784
185843
185964
186074
186023
185955
185820
185581
185423
185536
185700
185818
185996
186023
186036
185975
185876
185648
185431
185511
185658
185808
186015
186149
186092
185941
185814
185593
185449
185610
185738
185841
186048
186131
186073
185957
185850
185678
185534
185599
185711
185895
186093
186285
186408
186273
186180
185996
185832
185907
185989
186102
186199
186176
186099
185866
185681
185534
185294
185260
185405
185525
185671
185781
185746
185665
185649
185491
185376
185402
185500
185653
185800
185961
186041
185948
185884
185668
185534
185608
185774
185888
186051
186137
186130
185978
185800
185647
185558
185643
185787
185943
186063
186139
186182
186020
185899
185738
185528
185579
185751
185920
186083
186260
186279
186145
186030
185856
185618
185608
185796
186019
186183
186301
186277
186100
185986
185876
185712
185716
185844
186002
186164
186237
186332
186184
185928
185703
185636
185797
185910
186062
186295
186377
186382
186208
186054
185959
185796
185877
186035
186117
186248
186359
186439
186314
186181
186008
185891
185894
185999
186103
186269
186400
186405
186328
186262
186091
185897
185926
186074
186268
186424
186493
186517
186364
186221
186142
186023
186021
186109
186213
186309
186414
186447
186298
186207
186104
185983
185986
186148
186258
186355
186457
186460
186322
186166
185990
185836
185865
185950
186098
186262
186372
186398
186255
186108
185928
185718
185695
185820
185985
186211
186266
186350
186233
186007
185793
185656
185780
185982
186110
186181
186258
186364
186249
186086
185904
185710
185697
185840
186004
186158
186291
186363
186314
186149
185957
185725
185671
185791
185947
186054
186225
186301
186163
186023
185888
185782
185796
185861
186007
186173
186361
186341
186147
186052
185946
185772
185803
185834
185984
186094
186242
186343
186296
186150
186005
185841
185763
185855
186027
186173
186275
186310
186238
186099
185953
185747
185741
185879
186089
186184
186351
186518
186342
186144
186019
185826
185814
185854
185999
186136
186274
186366
186305
186133
186028
185837
185819
185926
186047
186196
186360
186379
186308
186129
186076
185909
185810
185920
186127
186235
186355
186482
186392
186178
186125
185953
185919
185984
186115
186202
186344
186421
186434
186306
186177
185947
185944
186055
186150
186310
186403
186489
186417
186257
186108
185903
185828
185943
186211
186373
186418
186472
186397
186319
186266
186011
185924
186003
186125
186240
186388
186458
186366
186199
186154
185965
185861
185913
186060
186241
186405
186447
186333
186208
186061
185906
185909
185977
186114
186211
186346
186441
186364
186288
186185
185893
185870
185895
186001
186133
186229
186376
186463
186382
186216
185951
185910
185986
186080
186208
186355
186508
186437
186249
186114
185951
185895
186009
186162
186303
186413
186526
186537
186396
186250
186022
185988
185922
186088
186331
186420
186589
186610
186402
186226
186045
185980
186001
186125
186221
186327
186504
186543
186434
186328
186133
185973
186036
186224
186303
186445
186580
186561
186443
186342
186113
186040
186065
186225
186356
186435
186610
186582
186371
186269
186154
186004
186011
186152
186252
186355
186530
186540
186346
186204
185985
185888
185937
186070
186260
186473
186587
186591
186424
186260
186098
185952
185955
186094
186213
186334
186495
186527
186376
186285
186141
185997
186015
186128
186263
186383
186499
186519
186379
186249
186087
185903
185901
186100
186262
186439
186548
186591
186495
186419
186194
186097
186170
186347
186496
186624
186791
186841
186636
186493
186200
186107
186128
186179
186209
186123
186182
186146
186054
185861
185762
185670
185646
185841
185948
186048
186256
186327
186194
186026
185867
185871
185921
186055
186171
186289
186474
186498
186395
186280
186095
185965
185907
186004
186110
186236
186366
186370
186202
186195
186012
185961
185977
186170
186284
186360
186517
186527
186398
186276
186025
185840
185837
185993
186203
186356
186552
186553
186431
186260
186093
185963
185909
186063
186269
186359
186540
186556
186443
186327
186160
186018
185951
185958
186174
186386
186562
186589
186484
186389
186206
186059
186052
186173
186259
186335
186503
186600
186578
186506
186361
186284
186138
186203
186398
186488
186708
186704
186579
186477
186361
186264
186284
186340
186429
186502
186712
186777
186696
186578
186351
186223
186269
186363
186518
186566
186704
186797
186729
186589
186400
186225
186130
186179
186365
186540
186784
186883
186740
186558
186436
186244
186181
186232
186376
186508
186808
186809
186632
186409
186254
186185
186239
186245
186395
186476
186616
186668
186529
186373
186246
186099
186129
186203
186344
186381
186542
186577
186562
186491
186373
186198
186101
186160
186254
186308
186515
186631
186595
186462
186213
186060
186084
186134
186306
186376
186507
186584
186524
186389
186190
186042
185982
186146
186289
186373
186553
186710
186631
186429
186289
186233
186117
186126
186230
186296
186518
186583
186529
186478
186324
186180
186125
186184
186272
186379
186567
186667
186600
186405
186260
186177
186200
186222
186297
186372
186577
186677
186628
186537
186424
186218
186087
186186
186347
186396
186592
186731
186672
186494
186353
186218
186121
186167
186402
186561
186688
186731
186627
186503
186415
186323
186181
186074
186153
186249
186515
186807
186861
186718
186522
186333
186211
186190
186306
186424
186687
186832
186754
186522
186296
186228
186134
186190
186352
186471
186673
186832
186804
186632
186454
186291
186192
186253
186385
186470
186603
186758
186678
186503
186317
186195
186150
186191
186354
186455
186556
186735
186726
186511
186373
186375
186336
186349
186412
186441
186576
186762
186864
186607
186438
186323
186204
186223
186315
186431
186615
186701
186650
186542
186424
186366
186238
186183
186268
186456
186620
186720
186733
186588
186472
186310
186183
186179
186359
186437
186571
186668
186704
186574
186425
186325
186229
186217
186389
186555
186713
186814
186824
186640
186471
186376
186260
186208
186355
186446
186717
186915
186894
186695
186532
186408
186243
186207
186363
186507
186695
186838
186867
186818
186729
186556
186384
186332
186452
186578
186710
186857
186969
186812
186653
186571
186394
186353
186505
186626
186834
187021
187072
186916
186700
186549
186453
186383
186470
186667
186794
186904
186939
186826
186698
186588
186450
186363
186487
186601
186780
186939
187010
186945
186726
186603
186516
186507
186537
186642
186770
186942
186987
186959
186701
186516
186428
186426
186595
186727
186945
187114
187131
186992
186721
186586
186413
186372
186450
186589
186858
187055
187135
187076
186910
186803
186614
186585
186685
186875
187065
187280
187331
187246
187059
186954
186815
186729
186723
186771
186963
187142
187073
186841
186548
186392
186176
186114
186237
186349
186424
186659
186834
186873
186621
186490
186360
186379
186466
186546
186795
186990
187022
186950
186752
186692
186562
186499
186545
186636
186756
186967
187086
187068
186811
186655
186499
186473
186589
186680
186901
187016
187003
186957
186824
186746
186561
186455
186486
186643
186830
187066
187163
187071
186843
186726
186559
186463
186520
186699
186905
187090
187112
187082
186833
186738
186601
186522
186598
186719
186947
187143
187210
187110
186881
186765
186614
186610
186736
186874
186990
187106
187214
187104
186964
186905
186734
186604
186632
186773
187011
187210
187264
187174
186961
186901
186777
186707
186815
186923
187065
187223
187328
187275
187057
186990
186833
186688
186711
186753
186963
187283
187433
187274
187045
187039
186853
186674
186713
186801
187082
187361
187398
187272
187074
186964
186759
186665
186730
186896
187036
187158
187261
187160
186900
186815
186680
186579
186651
186824
186931
187048
187168
187150
186965
186851
186713
186587
186578
186659
186829
186975
187054
187092
186998
186850
186667
186537
186560
186695
186784
186988
187095
187094
186931
186821
186694
186570
186508
186623
186771
186927
187003
187068
186904
186793
186689
186533
186561
186625
186813
186997
187097
187092
186903
186773
186648
186531
186531
186651
186785
186946
187122
187127
186909
186821
186780
186615
186576
186634
186812
186999
187074
187085
186925
186836
186674
186558
186574
186743
186907
187038
187130
187143
186939
186871
186728
186590
186573
186654
186853
187011
187141
187233
186999
186944
186765
186605
186627
186759
186899
187026
187152
187142
186987
186942
186774
186668
186627
186731
186869
187000
187100
187083
186972
186887
186779
186686
186675
186795
186887
187012
187169
187212
187046
186891
186656
186564
186553
186675
186833
187035
187243
187274
187045
186923
186768
186654
186601
186690
186833
186965
187066
187131
186967
186956
186846
186702
186643
186690
186824
186938
187072
187188
187028
186967
186835
186620
186620
186723
186881
186959
187117
187108
186929
186871
186768
186584
186607
186723
186859
186979
187092
187131
186927
186853
186758
186592
186582
186673
186788
186935
187078
187087
186946
186841
186680
186539
186497
186570
186715
186924
187127
187208
186969
186824
186729
186591
186578
186647
186810
186928
187095
187125
187003
186777
186661
186619
186604
186610
186760
186939
187098
187142
187076
186948
186714
186546
186546
186560
186781
186978
187164
187154
186952
186792
186673
186579
186659
186702
186855
187009
187224
187133
187018
186992
186909
186755
186623
186648
186856
186892
187078
187129
187012
186935
186815
186668
186681
186665
186810
186956
187126
187184
187055
186892
186778
186611
186593
186642
186764
186900
187089
187143
187031
186901
186774
186608
186561
186625
186784
186923
187052
187115
187033
186970
186876
186705
186632
186660
186776
186889
187150
187213
187051
186851
186788
186683
186659
186650
186813
186941
187212
187269
187147
187074
186962
186805
186763
186837
187052
187212
187375
187441
187353
187241
187045
186852
186716
186654
186755
186803
186903
186918
186750
186562
186434
186292
186175
186177
186472
186659
186802
186913
186854
186757
186619
186572
186524
186573
186770
186950
187052
187103
186978
186878
186830
186630
186515
186471
186664
186841
187018
187171
187032
186887
186817
186670
186628
186586
186688
186793
187072
187163
187019
186806
186704
186545
186487
186577
186788
186878
186979
187055
187018
186902
186788
186623
186602
186587
186699
186765
186900
187065
187038
186960
186757
186550
186489
186618
186821
186939
187054
187098
187005
186887
186732
186590
186435
186493
186856
187019
187100
187162
187088
186977
186835
186678
186601
186602
186718
186857
187054
187126
187122
187038
186943
186819
186687
186649
186841
186877
187011
187208
187214
187117
187055
186902
186694
186605
186735
186915
187175
187303
187203
187089
187034
186962
186825
186693
186791
186913
187092
187190
187154
187058
186921
186748
186620
186664
186808
186999
187117
187195
187141
187018
186880
186817
186615
186472
186637
186822
187061
187214
187192
187020
186915
186756
186587
186559
186738
186894
187028
187090
187076
186979
186840
186677
186544
186470
186636
186770
186945
187138
187167
187081
186911
186731
186599
186563
186688
186834
186974
187060
187012
186937
186801
186707
186550
186524
186731
186841
187000
187178
187134
187031
186861
186746
186662
186588
186753
186898
186995
187099
187148
187049
186915
186680
186523
186532
186697
186923
187049
187164
187193
187090
186915
186708
186603
186562
186745
186866
186891
187003
186971
187028
186973
186788
186693
186574
186691
186926
187066
187152
187137
187034
186899
186781
186686
186609
186785
186913
187008
187145
187172
187095
186919
186778
186588
186469
186642
186803
186997
187209
187175
187096
186923
186776
186577
186529
186673
186941
187054
187156
187138
187036
186913
186810
186609
186598
186706
186877
187005
187165
187130
187131
187046
186842
186659
186619
186641
186782
186973
187193
187181
187102
186919
186793
186661
186557
186701
186819
186913
187032
187029
187062
186918
186796
186602
186511
186684
186873
186940
187119
187098
187058
186949
186767
186565
186492
186641
186786
186923
187072
187083
187112
186956
186831
186666
186562
186639
186806
186898
187080
187112
187028
186834
186735
186640
186508
186676
186817
186869
187046
187110
187053
186907
186768
186618
186533
186620
186777
186948
187106
187132
187098
186908
186768
186632
186589
186718
186801
186893
187106
187155
187081
186976
186939
186709
186619
186693
186795
186922
187081
187158
187096
187007
186884
186707
186535
186657
186887
186984
187099
187155
187113
186960
186890
186789
186644
186724
186867
186994
187151
187218
187125
186968
186895
186719
186567
186660
186797
186888
187084
187197
187192
187036
186854
186687
186564
186631
186819
186925
187049
187122
187084
186937
186853
186736
186674
186764
186868
186961
187098
187144
187099
187020
186874
186675
186554
186644
186768
186874
187011
187106
187191
187168
187052
186841
186636
186674
186817
186952
187125
187198
187152
187089
186939
186838
186759
186806
186909
187071
187307
187402
187416
187340
187248
187059
186920
187010
187180
187218
187274
187297
187249
187039
186706
186445
186239
186358
186517
186624
186779
186872
186935
186816
186665
186540
186413
186448
186749
186882
186997
187056
187096
187028
186948
186775
186633
186608
186766
186891
187064
187123
187091
187004
186977
186813
186629
186633
186832
186967
187112
187208
187166
186999
186848
186765
186631
186622
186857
186986
187070
187161
187250
187068
186877
186754
186572
186581
186696
186914
187122
187215
187260
187085
186972
186808
186600
186620
186881
186950
187068
187121
187192
187109
186972
186878
186688
186644
186826
186981
187080
187180
187220
187135
186962
186787
186688
186757
186911
187004
187110
187177
187218
187119
187048
186904
186709
186701
186855
187078
187233
187358
187368
187242
187145
186978
186772
186704
186875
187016
187294
187379
187429
187236
187071
186925
186839
186869
186975
187066
187203
187328
187434
187295
187059
186887
186721
186797
186967
187079
187215
187296
187307
187191
186994
186789
186612
186655
186796
186924
187123
187184
187209
187125
186982
186855
186692
186588
186726
186847
186976
187129
187247
187168
187002
186850
186623
186585
186657
186783
186892
187050
187158
187040
186958
186829
186602
186513
186631
186806
186966
187102
187120
187046
186863
186686
186504
186592
186746
186825
186917
187009
187096
186986
186790
186701
186559
186651
186781
186902
187059
187162
187172
187025
186832
186718
186515
186522
186718
186918
187040
187125
187245
187155
186931
186883
186658
186633
186775
186885
186998
187162
187208
187136
186963
186808
186612
186610
186733
186966
187139
187163
187214
187173
187048
186927
186757
186699
186744
186867
186949
187089
187194
187094
186934
186798
186582
186701
186846
186972
187073
187150
187206
187173
187145
186999
186719
186644
186721
186834
186999
187165
187240
187148
186967
186809
186686
186757
186792
186880
186982
187103
187239
187199
187014
186888
186662
186675
186829
186932
187049
187106
187175
187151
187051
186861
186632
186602
186649
186842
186949
187094
187299
187186
186987
186860
186652
186565
186652
186836
187007
187100
187173
187117
187033
186871
186621
186654
186724
186800
186908
187088
187188
187115
186939
186817
186627
186647
186729
186760
186849
187013
187194
187171
186976
186825
186629
186601
186630
186778
186943
187094
187218
187147
186993
186856
186595
186551
186643
186796
186912
187026
187210
187154
186947
186781
186579
186619
186769
186896
186978
187084
187174
187132
186956
186835
186683
186539
186559
186739
186900
187077
187246
187171
187068
186978
186732
186595
186673
186853
187014
187164
187333
187210
186978
186827
186702
186664
186756
186892
186987
187141
187291
187260
187064
186911
186772
186687
186714
186897
187016
187139
187278
187256
187039
186841
186716
186711
186750
186892
187019
187130
187238
187192
187001
186891
186687
186579
186683
186884
186998
187093
187185
187158
186949
186817
186698
186688
186701
186850
187023
187053
187209
187160
186943
186807
186670
186619
186729
186877
187034
187092
187228
187266
187135
186939
186757
186656
186669
186833
186997
187084
187213
187246
187138
187010
186857
186672
186720
186937
187195
187355
187461
187545
187399
187210
186973
186954
186967
187023
187045
187072
187218
187199
186930
186728
186565
186430
186394
186537
186653
186794
186929
186954
186816
186773
186684
186550
186604
186762
186932
187077
187245
187177
186988
186883
186861
186909
186909
186946
187065
187207
187349
187332
187173
187027
186902
186877
186725
186843
187064
187177
187377
187407
187223
187077
186866
186759
186771
186874
187057
187201
187294
187338
187168
186974
186864
186831
186840
186944
187128
187240
187370
187400
187280
187097
186911
186827
186896
186956
187061
187155
187310
187377
187267
187137
186962
186872
186923
186935
186992
187075
187296
187323
187295
187215
187077
186969
186907
187004
187155
187254
187422
187424
187328
187164
186950
186824
186842
186959
187169
187334
187495
187514
187402
187222
187053
186984
187044
187095
187220
187267
187430
187492
187348
187159
187088
186872
186859
187010
187207
187369
187549
187594
187424
187224
187046
186920
186940
186985
187140
187179
187255
187290
187221
187269
187171
186882
186833
186933
187040
187138
187296
187362
187345
187229
187023
186756
186723
186806
186951
187036
187266
187301
187200
187082
186964
186789
186692
186757
186924
187023
187195
187261
187196
187036
186795
186671
186710
186812
186959
187070
187215
187271
187160
186949
186708
186620
186685
186798
187042
187133
187209
187268
187184
186960
186885
186768
186729
186743
186860
186936
187070
187196
187168
187100
186946
186771
186641
186718
186910
186978
187201
187341
187303
187156
186937
186750
186669
186757
186924
187048
187193
187321
187322
187184
186987
186814
186719
186833
187010
187005
187160
187241
187116
187017
186871
186795
186735
186781
186934
187040
187183
187305
187240
187066
186913
186710
186655
186749
186861
186985
187150
187280
187252
187114
186964
186790
186647
186691
186818
186929
187143
187199
187208
187100
186972
186826
186705
186758
186908
186982
187129
187221
187147
187025
186902
186788
186730
186848
186987
186977
187132
187221
187166
187045
186882
186784
186752
186759
186836
186916
187161
187242
187126
186914
186761
186717
186710
186717
186866
186965
187129
187205
187153
187054
186930
186767
186689
186703
186837
186928
187077
187230
187218
187074
186911
186784
186620
186664
186772
186894
187103
187264
187254
187077
186910
186757
186727
186732
186890
186893
186974
187098
187081
187053
187001
186893
186760
186749
186843
186911
187073
187211
187215
187004
186853
186765
186692
186731
186885
186983
187149
187245
187283
187192
187050
186923
186717
186682
186879
186995
187149
187225
187231
187125
187010
186915
186858
186790
186992
187052
187221
187350
187317
187184
187059
186918
186758
186683
186870
187022
187254
187412
187419
187207
187066
186963
186815
186784
186886
186975
187157
187312
187371
187228
186998
186843
186791
186744
186933
187121
187226
187316
187344
187256
187022
186849
186700
186731
186913
186957
187107
187319
187401
187351
187148
186967
186837
186840
186918
187012
187162
187365
187362
187198
187004
186923
186832
186795
186934
187070
187246
187354
187340
187184
187057
186926
186821
186927
187127
187287
187375
187591
187625
187468
187325
187261
187162
187097
187098
187117
187251
187301
187220
187073
186765
186550
186401
186396
186549
186643
186830
187039
187118
186976
186792
186690
186516
186562
186688
186874
187107
187264
187280
187204
186969
186876
186779
186773
186899
186983
187121
187301
187346
187232
186999
186887
186773
186764
186816
186904
187081
187265
187300
187159
186963
186897
186831
186730
186701
186798
186948
187161
187191
187131
187012
186964
186852
186815
186859
186967
187112
187233
187263
187176
186981
186894
186713
186703
186766
186952
187210
187317
187319
187242
186989
186878
186773
186746
186817
186958
187164
187299
187330
187254

[算法提取后的结构化特征]
# 由 EcgFeatureExtractor.extract() + toPromptText() 在手机端重建
# 注意: 本次测量为 raw 模式，本地算法未参与 DS 分析；此处重建仅作对照基线
#       raw 模式实际发给 DS 的是去趋势原始波形（见下方 [raw 模式发给 DS 的波形]）
# 注意: 用户 profile（年龄性别）未存入测量记录，手机端重建时为'未知'
#       助手如需年龄性别做医学判断，需用户单独提供

[用户属性]

[全局指标]
算法版本:v8
采样率:500Hz 时长:30.8s 总点数:15400
R波检测:31个 平均心率:73bpm 范围:65-90bpm
R波位置(样本索引):207,418,572,1100,1636,2288,2594,2810,2960,3126,4395,4566,5027,5484,7194,7365,7560,7961,8267,8689,8955,9305,9712,10048,11733,11883,12665,13513,14440,14771,15248
RR间期序列(ms，[*]为偏离均值>20%的异常间期，多为早搏/误检):[422*] [308*] [1056*] [1072*] [1304*] [612*] [432*] [300*] [332*] [342*] 922 914 [342*] [390*] 802 [612*] 844 [532*] 700 814 672 [300*] [1564*] [1696*] [1854*] 662 [954*]
RR差值序列(ms):-114,748,16,232,-692,-180,-132,32,10,580,-8,-572,48,412,-190,232,-312,168,114,-142,-372,1264,132,158,-1192,292
SDNN:96.7ms RMSSD:98.8ms pNN50:57.1%
QRS宽度(本地估测,ms):99±4 置信度:低置信
PR间期(本地估测,ms):166±42
QT间期(本地估测,ms):362 QTc(Bazett):399ms QTc(Fridericia):386ms 置信度:低置信
注:低置信间期为生理学先验值（腕表信号物理上限），判读时仅供参考，不应作为强证据
R波平均振幅:0.52mV
R波极性:负向(负向提示导联反接/位置异常)
T/R振幅比:1.05(正常0.1-0.5，<0.1低平，>0.5高尖)
ST段偏移(本地估测,mV):-0.075(正常±0.05，>0.1抬高，<-0.1压低)
信号质量:1.00 良好

[节律判别特征]
R波可靠性:边缘
可靠性指标:极端RR占比10% 有效RR占比90% 相邻RR跳变0% R峰-时长一致性0.83 异常段占比27%
提示:R波定位稳定性边缘：极端RR占比10%，节律判读需谨慎
RR变异系数:0.122(轻度不齐)
Poincaré散点形态:鱼雷形(轻度不齐)
短-长RR配对数(早搏代偿):2个
注意:R波定位稳定性边缘，节律判读需谨慎，不宜仅凭CV/Poincaré下房颤诊断。

[逐秒分段]
时段(s)  R波  振幅范围(mV)  峰峰值(mV)  最大斜率(mV/s)  RMS(mV)
0.0-1.0  2  -0.76~0.66  1.42  166.00  0.27
1.0-2.0  1  -0.86~0.78  1.64  160.50  0.33
2.0-3.0  1  -1.54~1.77  3.31  145.00  0.78
3.0-4.0  1  -1.17~1.27  2.44  169.00  0.48
4.0-5.0  1  -1.71~1.34  3.05  164.00  0.74
5.0-6.0  3  -0.62~0.64  1.25  184.00  0.26
6.0-7.0  1  -0.79~0.95  1.75  181.50  0.35
7.0-8.0  0  -0.65~0.74  1.40  141.50  0.29  ← 本秒无R波(心率<60或代偿间隙)
8.0-9.0  1  -1.36~1.22  2.58  145.00  0.62
9.0-10.0  1  -0.73~0.93  1.66  170.00  0.37
10.0-11.0  2  -0.85~0.94  1.79  166.50  0.28  ← 短RR+代偿间隙(早搏可能)
11.0-12.0  0  -0.69~0.54  1.24  189.50  0.25  ← 代偿间隙(配合前秒短RR)
12.0-13.0  0  -0.59~0.65  1.24  155.50  0.24  ← 本秒无R波(心率<60或代偿间隙)
13.0-14.0  0  -0.97~0.79  1.76  155.00  0.37  ← 本秒无R波(心率<60或代偿间隙)
14.0-15.0  2  -1.22~0.85  2.07  167.00  0.50
15.0-16.0  2  -0.93~0.83  1.76  167.00  0.39
16.0-17.0  1  -0.52~0.80  1.32  183.50  0.25
17.0-18.0  2  -0.66~0.69  1.36  177.00  0.28
18.0-19.0  1  -1.13~0.97  2.10  161.00  0.41
19.0-20.0  1  -0.63~0.62  1.25  164.50  0.26
20.0-21.0  1  -0.95~0.86  1.81  213.50  0.35
21.0-22.0  0  -0.69~0.50  1.19  145.00  0.23  ← 本秒无R波(心率<60或代偿间隙)
22.0-23.0  0  -1.87~1.71  3.57  153.50  1.04  ← 本秒无R波(心率<60或代偿间隙)
23.0-24.0  2  -1.51~2.56  4.07  166.50  1.07  ← 短RR+代偿间隙(早搏可能)
24.0-25.0  0  -0.73~0.72  1.45  135.50  0.34  ← 代偿间隙(配合前秒短RR)
25.0-26.0  1  -0.75~0.57  1.31  146.00  0.29
26.0-27.0  0  -0.74~0.69  1.43  150.00  0.25  ← 本秒无R波(心率<60或代偿间隙)
27.0-28.0  1  -0.73~0.60  1.33  160.00  0.23
28.0-29.0  1  -0.64~0.53  1.18  181.50  0.21
29.0-30.0  1  -0.58~0.62  1.20  140.00  0.23
逐秒RMS:0.273,0.335,0.784,0.481,0.736,0.263,0.350,0.293,0.625,0.365,0.280,0.250,0.245,0.370,0.498,0.385,0.253,0.277,0.407,0.256,0.354,0.228,1.035,1.069,0.343,0.293,0.252,0.233,0.214,0.231

[AI 解读]
# DeepSeek 返回的原始 JSON（未清洗，可能含 markdown 代码块包裹）
{
  "算法版本": "raw-v1(原始波形直传,未经本地算法)",
  "平均心率": 70,
  "最小心率": 60,
  "最大心率": 85,
  "心率范围": "60-85 bpm",
  "心率稳定性": "RR间期规律性差,心率波动较大",
  "心率置信度": "低",
  "SDNN_ms": 45.0,
  "RMSSD_ms": 35.0,
  "pNN50_pct": 10.0,
  "HRV解读": "HRV指标偏高,可能受噪声影响",
  "HRV置信度": "低",
  "节律判断": "心律不齐待查",
  "节律依据": "RR序列变异系数>0.15,但房颤4条件不全满足,Poincaré散点形态复杂,难以归类",
  "Poincare形态": "复杂形",
  "SD1_ms": 30.0,
  "SD2_ms": 55.0,
  "早搏提示": [],
  "节律置信度": "低",
  "PR间期_ms": 160,
  "PR判断": "无法测量（P波不可辨）",
  "PR置信度": "低",
  "QRS宽度_ms": 100,
  "QRS判断": "正常范围(80-120ms)",
  "QRS置信度": "低",
  "QT间期_ms": 380,
  "QTc_ms": 410,
  "QTcFridericia_ms": 405,
  "QTc判断": "正常范围(男<440,女<460)",
  "QTc置信度": "低",
  "间期测量说明": "R波检测困难,间期测量为目测估算,误差大；P波无法辨识；T波终点定位模糊",
  "R波极性": "正向",
  "T波方向": "与R波同向",
  "ST段": "无法判断",
  "R波振幅评估": "振幅极大（相对值>2000）,远超过腕表典型范围,提示可能为噪声或运动伪差",
  "信号质量": "中等",
  "噪声段": ["0.0-30.8s 振幅异常大,基线漂移明显,可能包含大量运动伪差"],
  "异常提示": [],
  "综合解读": "原始波形振幅异常巨大,远超腕表单导联ECG正常范围,且缺乏清晰的周期性心电活动,提示信号可能被严重噪声污染或为无效记录。在现有数据下无法可靠判读节律和间期,建议重新采集数据或结合PPG验证。",
  "健康建议": [
    "建议重新佩戴设备,确保电极与皮肤良好接触,静止状态下重新测量。",
    "如多次测量仍出现类似波形,请就医进行标准12导联心电图检查。"
  ],
  "免责声明": "本报告基于腕表单导联ECG原始波形由AI直接分析生成,间期/HRV/形态均为AI从波形估测,未经本地算法与临床医师审核,仅供健康参考,不作为医疗诊断依据。如有不适请就医复查标准12导联心电图。"
}
