========== ECG 算法诊断包 ==========
测量时间: 2026-07-17 11:28:44
测量时间戳:1784258924887
采样率:500 Hz
数据点数:15330
时长:30.7 秒
分析方法:ds_flash_balanced
Tavily状态:未触发（仅 Max 档联网检索）

[原始 ECG 数据]
# 单位: mV×1000 整数（如 500 = 0.5mV，-1000 = -1.0mV）
# 采样率: 500 Hz，连续采样，无降采样无压缩
# 用途: 助手据此复现本地算法行为（基线漂移/噪声段/R波检测）
# 格式: 每行一个数值，行号=采样点索引（第1行=索引0，即 t=0.000s）
142152
142165
142186
142144
142204
142232
142270
142264
142280
142239
142149
142182
142218
142264
142221
142148
142155
142179
142242
142287
142246
142273
142287
142295
142243
142170
142244
142129
142109
142039
142018
142090
142074
142112
142208
142157
142243
142197
142104
142032
141990
142031
142045
142119
142180
142183
142219
142167
142128
142136
142116
142081
142047
142112
142192
142215
142258
142232
142247
142134
142140
142131
142184
142301
142321
142279
142311
142350
142296
142290
142266
142211
142222
142238
142392
142446
142427
142556
142429
142310
142249
142232
142274
142385
142478
142468
142465
142539
142445
142361
142326
142448
142446
142354
142364
142313
142314
142281
142154
142121
142156
142234
142205
142245
142235
142270
142375
142355
142271
142136
142097
142110
142186
142179
142161
142186
142245
142205
142160
142169
142174
142179
142145
142176
142195
142165
142187
142246
142252
142206
142256
142259
142225
142230
142213
142230
142266
142311
142268
142300
142335
142395
142296
142250
142314
142349
142360
142395
142372
142286
142193
142282
142322
142384
142373
142319
142335
142266
142256
142154
142159
142212
142163
142217
142272
142313
142330
142314
142288
142225
142132
142174
142091
142148
142250
142305
142403
142282
142163
142080
141992
142108
142145
142197
142347
142332
142337
142381
142330
142228
142110
142180
142123
142195
142254
142282
142272
142325
142329
142331
142243
142198
142219
142278
142292
142198
142237
142298
142325
142251
142195
142234
142182
142197
142266
142251
142264
142307
142295
142163
142064
142094
142208
142268
142264
142236
142305
142279
142245
142133
142028
142062
142050
142071
142185
142307
142382
142294
142245
142221
142148
142129
142084
142088
142115
142067
142201
142230
142239
142309
142295
142302
142311
142348
142391
142288
142180
142260
142273
142194
142197
142265
142279
142351
142381
142369
142385
142444
142409
142342
142305
142321
142297
142354
142435
142537
142644
142644
142594
142518
142465
142542
142478
142476
142543
142602
142780
142879
142712
142592
142596
142650
142662
142646
142660
142681
142626
142610
142668
142633
142685
142630
142540
142548
142533
142515
142581
142637
142596
142541
142496
142561
142569
142518
142523
142508
142574
142569
142501
142486
142375
142355
142353
142260
142349
142440
142623
142591
142502
142354
142239
142225
142254
142324
142410
142459
142454
142543
142528
142462
142367
142413
142388
142354
142354
142327
142352
142297
142180
142087
141986
141944
141841
141805
141834
141869
141963
141998
141950
141857
141841
141933
142027
142152
142229
142302
142296
142207
142259
142295
142205
142202
142265
142287
142355
142497
142461
142453
142431
142309
142301
142358
142373
142378
142517
142507
142530
142589
142570
142555
142515
142599
142578
142590
142682
142693
142687
142693
142807
142752
142612
142737
142748
142771
142857
142869
142865
142893
142903
142826
142804
142844
142821
142805
142857
142878
142913
142928
142972
142988
142898
142835
142847
142819
142877
142912
142943
142918
142892
142865
142834
142809
142819
142875
142948
142914
142925
142928
142870
142852
142882
143018
142941
142878
142987
143014
143075
143154
143094
142974
142968
143058
143080
143121
143189
143097
143153
143247
143219
143151
143046
143093
143115
143137
143153
143097
143130
143166
143199
143177
143099
143060
143000
143038
143099
143124
143086
143164
143219
143154
143032
143094
143062
143007
143109
143076
143056
143089
143109
142945
142954
142971
143019
143017
143017
142976
143010
143032
143074
143055
142975
142961
142951
142958
143062
143080
143079
143115
143139
143109
142970
143008
143005
143044
143090
143204
143310
143343
143354
143345
143215
143247
143285
143293
143400
143375
143371
143430
143437
143374
143321
143362
143434
143437
143446
143472
143537
143542
143539
143489
143385
143401
143477
143511
143513
143519
143533
143629
143672
143543
143426
143488
143521
143527
143483
143585
143680
143671
143672
143622
143585
143580
143573
143574
143619
143608
143623
143571
143578
143558
143469
143531
143509
143535
143719
143724
143680
143640
143738
143778
143629
143536
143583
143594
143656
143624
143634
143634
143688
143679
143607
143631
143707
143764
143817
143775
143781
143783
143822
143723
143664
143708
143798
143873
143908
143930
143974
143965
143984
143917
143882
143896
143899
143898
143914
143921
143940
143906
144004
144052
144011
143955
143904
143915
143958
144022
144077
144098
144159
144170
144026
143981
144032
144110
143966
143993
144081
144050
144043
144019
143966
144035
144063
144007
143982
143942
143954
143967
144036
144086
144066
144115
144146
144093
144015
143965
143981
144026
144059
144167
144053
144059
144035
143990
144082
144097
144127
144167
144104
143951
143852
143918
143972
144010
144017
143958
144039
144128
144242
144192
144092
144105
144111
144060
144108
144135
144155
144144
144218
144222
144193
144141
144145
144195
144274
144196
144235
144229
144258
144271
144237
144207
144242
144240
144217
144138
144203
144231
144368
144438
144311
144305
144377
144415
144412
144468
144579
144613
144611
144546
144508
144590
144566
144480
144523
144566
144569
144597
144576
144545
144522
144567
144616
144561
144670
144678
144675
144737
144816
144820
144684
144634
144591
144549
144561
144710
144809
144859
144848
144820
144748
144818
144840
144799
144847
144787
144859
144943
144967
144985
144935
144921
144885
144860
144941
145129
145174
145191
145165
145165
145139
145143
145163
145135
145133
145149
145211
145204
145160
145132
145022
144968
144873
144758
144726
144686
144726
144695
144655
144642
144607
144648
144856
144966
144898
144902
144951
145003
145046
145083
145071
145201
145225
145219
145230
145216
145286
145331
145387
145364
145324
145281
145296
145362
145306
145308
145355
145372
145402
145368
145247
145244
145241
145234
145394
145432
145447
145421
145416
145455
145486
145498
145446
145387
145438
145461
145557
145631
145650
145606
145372
145404
145396
145413
145531
145541
145609
145618
145629
145613
145548
145511
145506
145434
145457
145511
145568
145592
145639
145627
145577
145602
145576
145572
145584
145630
145713
145724
145713
145635
145538
145677
145785
145779
145804
145858
145899
145894
145950
145854
145790
145811
145845
145848
145836
145808
145838
145845
145921
145966
145850
145808
145878
145857
145839
145799
145868
145951
146031
145964
145900
145890
145939
145960
145959
145930
145899
145911
145995
146007
145868
145868
145896
145851
145893
145939
145947
145935
145877
145894
145788
145795
145798
145823
145814
145867
145916
145879
145922
145925
145904
145924
145897
145865
145865
145910
145990
146009
145895
145865
145786
145788
145854
145819
145811
145865
145867
145924
145959
145949
145871
145856
145923
146012
146005
145949
146044
146105
146127
146175
146063
145998
146071
146095
146113
146164
146105
146135
146164
146168
146067
146048
146038
146087
146192
146233
146258
146186
146179
146232
146258
146189
146170
146190
146179
146193
146308
146337
146382
146437
146313
146286
146278
146258
146321
146312
146295
146383
146422
146428
146337
146334
146394
146367
146287
146323
146360
146344
146425
146406
146365
146335
146343
146362
146364
146333
146414
146452
146439
146431
146322
146259
146320
146333
146312
146383
146509
146557
146587
146519
146451
146409
146454
146450
146455
146485
146600
146709
146723
146711
146652
146623
146575
146574
146559
146653
146795
146813
146697
146676
146633
146561
146622
146800
146595
146594
146625
146648
146659
146636
146654
146648
146649
146614
146511
146639
146697
146814
146900
146869
146727
146765
146826
146793
146732
146671
146729
146716
146726
146811
146772
146758
146758
146723
146676
146666
146800
146825
146730
146759
146734
146676
146591
146623
146670
146746
146823
146819
146842
146816
146743
146742
146742
146788
146775
146771
146817
146854
146838
146841
146789
146821
146876
146854
146829
146845
146916
146870
146848
146854
146800
146803
146855
146844
146790
146824
146837
146819
146865
146882
146740
146805
146922
146988
146967
146886
146914
146937
146987
147088
147135
147067
147001
146972
146979
147048
147171
147194
147193
147259
147216
147186
147153
147115
147031
147094
147320
147404
147363
147333
147260
147305
147353
147367
147332
147337
147387
147408
147389
147423
147450
147493
147511
147511
147522
147568
147555
147555
147581
147589
147586
147600
147556
147502
147514
147502
147547
147557
147529
147622
147553
147552
147636
147688
147695
147699
147732
147706
147703
147693
147686
147646
147556
147570
147636
147693
147791
147833
147759
147808
147749
147740
147789
147828
147774
147788
147954
147922
147924
147924
147897
147936
147925
148073
148047
148042
148110
148093
148123
148148
148067
147937
147857
147811
147742
147679
147658
147596
147530
147569
147549
147602
147585
147637
147619
147650
147804
147955
147929
147875
147901
147860
147960
148066
148100
148082
148149
148152
148166
148188
148233
148206
148265
148278
148259
148210
148282
148367
148445
148421
148265
148274
148249
148252
148315
148298
148351
148442
148457
148489
148496
148499
148448
148417
148380
148347
148462
148533
148502
148543
148523
148499
148466
148494
148478
148502
148584
148586
148610
148640
148541
148596
148645
148573
148617
148675
148675
148653
148676
148738
148787
148691
148610
148588
148653
148650
148737
148806
148866
148873
148787
148749
148722
148705
148776
148756
148854
148838
148883
149024
148979
148900
148857
148811
148824
148844
148989
149055
148968
148933
148931
148962
148950
148962
148940
148945
148908
149026
149063
149084
149057
149062
149010
148973
149047
149047
149097
149168
149130
149113
149098
149132
149138
149073
149056
148993
149047
149065
149065
149075
149062
149087
149022
148956
148909
148926
148971
148966
149020
149049
148919
148945
148979
148932
148949
148930
148975
148977
149034
149079
149038
148971
148919
148971
149067
149152
149253
149171
149118
149223
149209
149131
149144
149108
149051
149089
149152
149201
149176
149185
149199
149183
149124
149092
149032
149072
149245
149331
149346
149426
149411
149404
149378
149288
149241
149118
149209
149332
149422
149404
149358
149312
149321
149306
149311
149192
149213
149350
149385
149374
149362
149330
149321
149301
149269
149256
149311
149304
149275
149258
149232
149250
149211
149123
149132
149147
149274
149416
149401
149278
149257
149291
149228
149279
149327
149138
149181
149237
149223
149222
149217
149241
149294
149343
149343
149309
149273
149322
149397
149418
149400
149379
149329
149266
149268
149260
149343
149446
149508
149479
149438
149440
149417
149352
149401
149376
149483
149635
149520
149541
149622
149587
149448
149432
149444
149394
149444
149502
149580
149611
149655
149626
149554
149593
149578
149555
149606
149595
149587
149654
149646
149665
149608
149589
149599
149582
149681
149677
149630
149705
149687
149691
149624
149615
149624
149565
149637
149685
149672
149676
149573
149497
149447
149477
149489
149555
149660
149761
149728
149652
149603
149619
149658
149633
149584
149502
149534
149620
149600
149578
149516
149509
149509
149501
149570
149463
149490
149595
149638
149589
149582
149545
149448
149469
149513
149470
149464
149472
149543
149570
149600
149633
149569
149542
149469
149392
149427
149482
149561
149543
149540
149510
149506
149478
149513
149476
149589
149721
149611
149500
149590
149621
149566
149543
149480
149428
149500
149529
149568
149654
149593
149542
149561
149580
149556
149473
149511
149629
149696
149655
149567
149595
149567
149597
149614
149479
149539
149555
149629
149686
149613
149576
149609
149563
149632
149576
149582
149678
149775
149757
149774
149741
149714
149673
149645
149553
149592
149617
149645
149694
149712
149661
149533
149517
149610
149632
149712
149794
149650
149599
149606
149582
149561
149499
149495
149478
149567
149605
149613
149593
149592
149609
149538
149493
149459
149411
149486
149557
149585
149569
149538
149562
149562
149585
149590
149503
149570
149640
149658
149567
149608
149615
149540
149525
149487
149442
149539
149638
149672
149682
149736
149763
149758
149775
149810
149818
149908
149907
149926
149935
149893
149855
149795
149688
149567
149486
149499
149512
149479
149386
149370
149333
149365
149415
149343
149187
149305
149447
149390
149392
149396
149491
149534
149559
149592
149552
149608
149668
149742
149780
149745
149714
149638
149644
149752
149823
149780
149764
149748
149731
149717
149784
149697
149640
149602
149501
149650
149836
149865
149776
149754
149780
149761
149692
149649
149648
149634
149680
149704
149739
149675
149695
149629
149646
149733
149731
149755
149712
149764
149705
149662
149733
149712
149743
149759
149723
149729
149703
149684
149698
149689
149684
149649
149717
149826
149741
149727
149822
149845
149827
149791
149797
149749
149710
149703
149672
149683
149747
149770
149836
149783
149833
149733
149665
149656
149683
149747
149735
149819
149731
149707
149790
149756
149719
149686
149657
149635
149709
149769
149776
149793
149813
149707
149657
149648
149585
149590
149648
149700
149688
149632
149654
149645
149620
149690
149637
149603
149620
149694
149603
149488
149496
149442
149426
149441
149419
149433
149457
149585
149599
149465
149462
149398
149395
149383
149323
149368
149407
149455
149512
149448
149566
149540
149438
149456
149377
149349
149408
149561
149560
149546
149490
149442
149465
149561
149537
149525
149568
149605
149542
149590
149689
149653
149542
149514
149428
149523
149618
149707
149716
149683
149746
149718
149665
149685
149671
149632
149622
149754
149671
149681
149801
149757
149702
149732
149630
149484
149595
149698
149683
149661
149684
149645
149625
149607
149571
149617
149788
149845
149794
149696
149728
149700
149670
149533
149457
149514
149560
149704
149654
149622
149772
149720
149563
149584
149580
149527
149559
149523
149528
149566
149603
149600
149562
149561
149493
149530
149554
149562
149577
149571
149618
149530
149442
149416
149441
149422
149429
149471
149504
149528
149513
149475
149444
149446
149462
149484
149403
149420
149416
149425
149373
149367
149378
149328
149329
149361
149333
149344
149328
149325
149369
149259
149178
149165
149130
149089
149136
149142
149151
149149
149199
149193
149193
149124
149070
149061
149039
149082
149152
149186
149282
149278
149160
149103
149082
149017
149077
149220
149198
149145
149106
149147
149133
149085
149036
149064
149134
149143
149146
149137
149089
149020
148995
149039
148989
148997
149015
149056
149148
149110
149151
149028
148985
149010
148949
148882
148914
149014
149071
149046
149113
149003
148956
148946
148927
148988
149132
149240
149228
149131
149147
149054
148941
148911
148936
149105
149250
149172
149113
149085
149162
149101
149013
149012
149002
149008
149069
149131
149217
149177
149227
149168
149169
149137
149044
149056
149079
149127
149241
149200
149333
149352
149262
149209
149300
149354
149358
149295
149287
149344
149430
149403
149261
149224
149149
149194
149319
149464
149528
149528
149531
149434
149357
149294
149303
149314
149366
149406
149406
149351
149405
149452
149447
149388
149303
149249
149396
149542
149620
149501
149409
149448
149482
149450
149383
149471
149508
149574
149574
149504
149463
149458
149470
149617
149629
149564
149560
149624
149644
149617
149681
149642
149600
149599
149594
149671
149689
149723
149773
149671
149819
149753
149704
149676
149595
149582
149522
149415
149358
149318
149288
149172
149079
149084
149046
149051
149146
149298
149286
149315
149403
149422
149394
149278
149292
149355
149415
149549
149680
149640
149699
149690
149661
149683
149621
149597
149537
149583
149657
149657
149653
149684
149580
149542
149541
149558
149501
149619
149653
149711
149772
149777
149780
149705
149600
149562
149598
149676
149732
149844
149902
149916
149851
149725
149676
149711
149736
149800
149771
149723
149789
149813
149814
149766
149716
149747
149807
149816
149835
149794
149774
149828
149790
149784
149760
149778
149813
149886
149817
149885
149929
149899
149745
149765
149766
149791
149908
150014
149996
149944
149977
149989
149906
149892
149915
149904
149924
150033
149966
149875
150045
150089
150006
149955
149890
149927
149972
150072
150036
149985
150011
150043
149995
149953
149774
149863
149902
149966
150039
150002
149979
149904
149856
149938
149949
150005
150061
149989
149925
149905
150001
150035
150046
149918
149832
149817
149796
149873
149925
149828
149813
149910
149844
149777
149767
149809
149831
149848
149834
149743
149814
149818
149841
149745
149737
149739
149688
149703
149732
149717
149893
149968
149884
149786
149742
149768
149746
149798
149878
149835
149799
149732
149772
149756
149778
149866
149885
149960
149984
149872
149874
149934
150018
149961
149996
150083
150012
150038
150079
149948
149980
150001
149997
149983
150059
150154
150107
150106
150116
150130
150093
150106
150021
149965
149978
150112
150135
150111
150146
150152
150186
150159
150034
149997
150002
150032
149991
150041
150119
150047
150029
150116
150027
149939
149925
149871
149775
149886
150003
150011
150008
149985
149929
149839
149804
149802
149837
149893
149949
149967
149993
150033
149947
149831
149812
149912
149921
149920
150029
149996
150005
150040
149979
149909
149807
149773
149811
149926
149996
150037
149999
149996
149835
149750
149772
149886
149879
149970
150050
149999
149952
149969
149963
149987
149913
149955
149931
149943
150077
150158
150217
150257
150163
150131
150092
150018
150017
150075
150096
150054
150058
150061
150102
150087
150036
150071
150079
150210
150199
150115
150173
150209
150117
150078
150015
149998
149976
150079
150104
150036
150069
150155
150126
150074
150105
150120
150077
150056
150119
150106
150091
150106
150040
150000
149909
149955
149971
150029
150034
150062
150091
150122
150100
149986
149957
149965
150037
150112
150221
150152
150147
150138
150077
149993
149895
150088
150095
150082
150086
150128
150130
150122
150089
150025
150001
149992
150052
150110
150177
150183
150238
150249
150296
150246
150172
150223
150194
150199
150262
150209
150187
150109
150156
150194
150226
150276
150319
150306
150301
150301
150327
150280
150252
150229
150172
150162
150158
150256
150290
150296
150324
150329
150293
150242
150163
150252
150314
150275
150317
150307
150321
150298
150245
150227
150262
150225
150144
150169
150234
150281
150310
150345
150366
150278
150209
150183
150195
150199
150228
150149
150213
150297
150349
150349
150252
150227
150190
150242
150352
150338
150404
150436
150403
150392
150446
150476
150474
150538
150549
150516
150586
150659
150639
150570
150423
150383
150256
150312
150302
150183
150170
150167
150021
149906
149844
149864
149914
149990
150064
150124
150164
150228
150187
150172
150235
150259
150255
150328
150434
150370
150339
150401
150409
150553
150528
150505
150415
150363
150456
150478
150493
150533
150547
150487
150432
150478
150450
150464
150516
150489
150548
150621
150586
150505
150410
150427
150460
150500
150589
150593
150614
150627
150643
150530
150477
150467
150477
150466
150514
150528
150527
150550
150603
150602
150516
150531
150482
150471
150540
150539
150613
150657
150600
150487
150425
150505
150527
150572
150600
150547
150551
150547
150564
150546
150503
150509
150422
150536
150584
150599
150651
150725
150722
150659
150588
150609
150559
150536
150701
150673
150650
150705
150712
150675
150631
150675
150641
150610
150640
150590
150527
150556
150629
150675
150795
150807
150719
150700
150769
150749
150806
150786
150754
150728
150686
150742
150677
150629
150668
150680
150660
150677
150688
150651
150588
150599
150606
150631
150683
150711
150738
150687
150577
150633
150649
150709
150710
150670
150650
150578
150661
150736
150700
150706
150549
150550
150557
150562
150636
150666
150704
150746
150753
150696
150645
150664
150643
150606
150660
150714
150779
150781
150827
150870
150742
150753
150759
150789
150805
150791
150830
150860
150837
150772
150713
150749
150820
150851
150865
150851
150893
150951
150968
150972
150832
150857
150964
150951
150970
150876
150886
150901
150923
150846
150838
150872
150844
150860
150903
150970
151013
151086
151014
150889
150784
150801
150819
150828
150881
150916
150960
150980
150963
150906
150839
150817
150692
150646
150759
150865
150961
151010
150929
150868
150778
150711
150740
150731
150810
150896
151008
150887
150752
150744
150679
150629
150654
150698
150813
150804
150832
150855
150865
150829
150764
150759
150758
150685
150742
150733
150741
150789
150788
150697
150665
150653
150710
150675
150759
150723
150608
150607
150708
150721
150767
150851
150791
150689
150677
150697
150703
150701
150779
150758
150672
150759
150739
150659
150754
150741
150742
150748
150779
150710
150608
150628
150682
150763
150872
150731
150760
150790
150828
150780
150637
150626
150638
150603
150653
150700
150783
150872
150800
150687
150565
150619
150595
150588
150600
150682
150778
150794
150768
150666
150609
150642
150631
150547
150553
150573
150624
150571
150583
150578
150674
150792
150825
150751
150722
150716
150756
150761
150725
150675
150638
150643
150628
150636
150722
150771
150833
150795
150689
150648
150600
150588
150630
150599
150589
150595
150663
150737
150825
150746
150688
150648
150605
150544
150584
150723
150782
150867
150873
150790
150717
150775
150814
150909
150883
150858
150911
150927
150920
150875
150844
150857
150907
150845
150843
150876
150904
150905
150888
150870
150790
150839
150948
150945
150997
150978
150973
150941
150960
150926
150896
150986
151027
150985
150980
151014
151033
150999
150937
150941
150907
150924
150886
150907
150940
150956
150982
151006
151075
151059
150988
150983
150951
150892
150980
151000
151035
151045
151047
150962
150856
150976
150960
150971
151022
151035
151034
151051
151018
151001
150889
150904
150990
150992
151009
150993
151031
151095
151131
151074
151063
151170
151185
151182
151146
151107
151183
151153
151140
151098
150956
150952
150947
150794
150670
150652
150594
150538
150578
150592
150565
150575
150561
150559
150572
150658
150784
150877
150949
150951
150884
150984
151046
150880
150807
150787
150913
151038
151104
151108
150997
150963
150964
150976
150906
150913
151033
150994
150986
151030
151001
151051
151071
151029
151047
150992
151029
151063
151052
151029
150926
150918
150913
150866
150853
150893
150994
151029
151099
151140
150999
150957
150951
150907
150897
150923
150980
151026
150977
150943
150936
150924
150945
150986
150964
150997
151049
151035
151011
151009
150930
150968
151015
150968
150968
150915
150883
150879
150872
150958
150929
150951
150999
150951
150943
150968
151033
151027
151029
151014
150948
151020
151068
151012
150989
150991
151080
151076
151135
151153
151060
151107
151087
151025
151016
151015
151047
151114
151064
151058
151004
150990
150993
151019
150954
150873
150921
150945
150966
150919
150795
150787
150872
150935
151039
150846
150872
150914
150925
150890
150825
150849
150820
150781
150829
150824
150846
150789
150793
150785
150767
150759
150739
150655
150623
150659
150765
150729
150817
150901
150804
150722
150700
150686
150699
150666
150791
150849
150763
150829
150800
150768
150771
150771
150746
150807
150918
150967
150967
150926
150884
150910
150950
150858
150858
150844
150960
151005
151019
151116
151082
150992
151012
150997
150936
150885
150880
150956
151071
151046
150973
151027
151025
150971
150936
150919
150973
151020
150980
150909
150795
150794
150812
150849
150780
150746
150795
150791
150802
150852
150868
150848
150818
150761
150760
150807
150874
150844
150798
150834
150765
150756
150700
150560
150507
150511
150710
150860
150884
150867
150737
150717
150738
150691
150691
150616
150677
150734
150804
150875
150806
150746
150747
150719
150712
150666
150752
150853
150956
150938
150825
150808
150880
150804
150720
150763
150841
150844
150841
150879
150777
150808
150827
150862
150834
150854
150890
150872
150840
150878
150783
150811
150872
150916
150903
150877
150947
150968
150909
150863
150811
150803
150775
150807
150873
150876
150893
150934
150977
150986
150860
150901
150873
150868
150776
150761
150837
150911
150933
150906
150923
150903
150866
150893
150737
150764
150815
150801
150780
150786
150736
150774
150804
150848
150875
150852
150851
150864
150901
150866
150751
150720
150732
150697
150633
150587
150592
150725
150794
150743
150704
150726
150718
150751
150748
150745
150902
150888
150829
150857
150796
150791
150814
150778
150813
150808
150895
150912
150836
150857
150836
150885
150872
150851
150840
150862
150987
151002
150977
150863
150802
150821
150808
150799
150833
150907
150989
151032
151057
151076
151021
150991
150974
150968
150938
150947
151027
151075
151037
151074
151040
151114
151089
151031
151073
151023
151059
151061
151083
151162
151065
150993
151003
151030
151012
150924
150977
150997
150960
151000
150968
150930
150879
150945
150969
150931
150946
150865
150902
150957
150933
150974
150941
150888
150836
150857
150906
151022
150943
150941
150927
150941
150961
150957
150940
150968
151051
151054
150991
151023
150977
151042
151089
151163
151081
150994
151099
151139
151139
151134
151081
150969
150896
150831
150713
150634
150710
150669
150610
150677
150673
150671
150623
150638
150646
150681
150731
150839
150865
150923
150941
150994
151048
151038
151073
151112
151149
151104
151003
151016
151038
151110
151203
151193
151110
151030
151068
151172
151186
151118
151057
151089
151144
151183
151154
151134
151182
151139
151115
151194
151228
151244
151218
151201
151212
151191
151227
151154
151169
151217
151174
151108
151101
151091
151095
151056
151212
151203
151163
151169
151147
151095
151129
151158
151183
151149
151222
151238
151214
151234
151133
151076
151097
151166
151203
151187
151212
151190
151215
151269
151252
151248
151238
151211
151196
151165
151228
151277
151327
151309
151283
151285
151252
151211
151161
151198
151188
151256
151377
151367
151265
151243
151227
151270
151233
151198
151323
151374
151351
151363
151342
151322
151259
151240
151216
151134
151203
151239
151320
151360
151287
151281
151229
151237
151177
151123
151208
151268
151291
151308
151217
151219
151218
151286
151220
151197
151274
151239
151211
151216
151167
151139
151108
151110
151156
151094
151131
151166
151117
151116
151172
151210
151220
151172
151165
151134
151214
151222
151211
151188
151182
151203
151201
151257
151154
151093
151146
151188
151164
151225
151227
151189
151214
151226
151210
151125
151248
151302
151297
151276
151180
151179
151190
151198
151194
151160
151196
151200
151260
151338
151286
151300
151239
151218
151187
151098
151138
151056
150983
151111
151217
151118
151102
151048
151042
151052
151108
151133
151145
151143
151133
151113
151139
151142
151103
151039
151153
151175
151179
151161
151143
151146
151091
151100
151169
151167
151219
151229
151176
151146
151087
151104
151149
151099
151096
151046
151064
151192
151187
151190
151248
151245
151242
151256
151211
151086
151168
151229
151314
151215
151079
151099
151128
151184
151169
151157
151228
151290
151268
151267
151190
151135
151075
151035
151050
151060
151128
151226
151269
151246
151235
151234
151151
151135
151163
151090
151119
151180
151269
151296
151321
151279
151232
151165
151143
151100
151180
151261
151314
151308
151277
151177
151081
151083
151131
151150
151253
151296
151257
151242
151256
151106
151145
151068
151085
151119
151229
151228
151173
151134
151108
151105
151063
151014
151034
151091
151170
151217
151193
151195
151162
151073
151087
151105
151080
151023
151033
151067
151024
151097
151149
151083
151062
151032
151026
150970
151002
151010
150942
150983
151017
151041
150974
150915
150930
150881
150897
150961
151001
151050
151034
150949
150842
150803
150809
150814
150926
150947
151011
151020
151031
151050
150926
150955
150990
151076
151110
151085
151126
151092
151013
151049
151054
151045
151064
151039
151106
151160
151158
151157
151105
151066
151006
150979
151053
151080
151159
151256
151215
151168
151135
151165
151129
151129
151105
151044
151097
151174
151151
151121
151134
151170
151117
151144
151183
151031
151035
151143
151196
151233
151159
151089
151059
151010
151105
151068
151075
151136
151197
151154
151076
151129
151116
151124
151068
150967
150958
151009
151060
151071
151117
151164
151162
151174
151147
151042
151090
151196
151204
151154
151157
151232
151269
151225
151238
151220
151271
151354
151299
151289
151267
151188
151134
151036
150927
150776
150725
150778
150737
150643
150552
150632
150596
150700
150786
150782
150787
150862
150879
150876
150894
150951
150950
150915
150903
150942
151037
151167
151175
151206
151224
151202
151099
151084
151108
151026
151048
151157
151103
151067
151062
151052
150948
150914
150985
151024
151116
151219
151202
151189
151166
151180
151233
151159
151083
151085
151050
151097
151142
151159
151183
151203
151135
151142
151152
151177
151170
151229
151220
151187
151188
151261
151267
151183
151143
151117
151082
151204
151248
151179
151142
151165
151169
151220
151225
151146
151184
151202
151296
151394
151323
151281
151272
151182
151138
151087
151157
151215
151209
151292
151340
151345
151248
151246
151264
151211
151277
151381
151476
151416
151359
151379
151312
151224
151210
151187
151210
151257
151327
151323
151312
151395
151404
151312
151288
151272
151278
151259
151260
151260
151229
151292
151299
151256
151322
151310
151267
151207
151164
151161
151185
151195
151175
151194
151212
151153
151173
151192
151236
151159
151067
151136
151139
151151
151186
151093
151065
151091
151142
151138
151138
151216
151166
151104
151104
151006
151016
151047
151067
151067
151109
151151
151169
151113
151066
151025
151088
151128
151121
151161
151153
151194
151194
151198
151099
151065
151113
151198
151243
151335
151259
151211
151167
151158
151222
151198
151163
151248
151239
151283
151256
151227
151257
151207
151207
151260
151334
151388
151337
151319
151248
151318
151276
151260
151179
151102
151163
151205
151262
151321
151338
151368
151346
151264
151225
151142
151207
151220
151240
151183
151161
151225
151190
151236
151219
151231
151209
151263
151287
151283
151177
151176
151093
151053
151090
151145
151100
151125
151209
151248
151255
151342
151248
151184
151089
151133
151104
151084
151198
151328
151248
151135
151103
151125
151115
151132
151185
151252
151278
151258
151179
151233
151181
151140
151192
151095
151088
151181
151158
151179
151154
151178
151273
151279
151269
151222
151223
151270
151327
151349
151259
151270
151294
151359
151283
151162
151207
151276
151298
151257
151232
151225
151239
151283
151256
151290
151368
151346
151299
151342
151237
151305
151305
151314
151243
151260
151269
151325
151339
151349
151313
151394
151375
151304
151265
151239
151218
151173
151259
151262
151269
151358
151386
151421
151318
151207
151144
151177
151252
151276
151285
151460
151503
151434
151409
151383
151296
151263
151324
151348
151326
151415
151467
151423
151420
151387
151377
151346
151356
151410
151368
151438
151439
151376
151374
151372
151321
151364
151439
151400
151431
151557
151503
151428
151394
151382
151400
151456
151515
151522
151443
151536
151505
151430
151377
151327
151322
151403
151446
151495
151499
151552
151575
151550
151536
151443
151312
151405
151471
151458
151493
151526
151467
151320
151354
151403
151476
151559
151581
151591
151587
151653
151633
151550
151469
151451
151407
151494
151483
151511
151439
151499
151649
151542
151522
151482
151474
151540
151630
151578
151508
151568
151633
151585
151573
151580
151516
151498
151535
151539
151476
151529
151542
151470
151485
151407
151453
151507
151514
151516
151510
151575
151580
151527
151544
151554
151569
151566
151602
151574
151534
151512
151606
151586
151569
151577
151576
151603
151632
151698
151670
151726
151731
151737
151713
151663
151582
151594
151624
151584
151531
151460
151351
151222
151098
151009
151011
151047
151119
151255
151169
151174
151166
151127
151184
151145
151156
151220
151345
151337
151318
151416
151461
151442
151490
151470
151442
151448
151542
151542
151440
151480
151493
151498
151503
151495
151469
151406
151363
151365
151391
151526
151637
151604
151497
151449
151393
151394
151435
151454
151499
151556
151513
151542
151552
151438
151421
151409
151435
151514
151474
151567
151627
151548
151483
151425
151356
151374
151568
151636
151631
151627
151634
151606
151604
151583
151557
151534
151601
151695
151674
151682
151660
151579
151487
151437
151525
151585
151641
151656
151656
151672
151691
151663
151598
151540
151638
151573
151583
151677
151706
151764
151756
151741
151608
151591
151674
151645
151629
151652
151619
151659
151705
151691
151717
151619
151633
151615
151695
151776
151703
151686
151681
151647
151619
151637
151607
151616
151614
151598
151613
151635
151592
151540
151540
151495
151441
151444
151476
151500
151476
151500
151469
151460
151483
151439
151307
151358
151417
151467
151426
151441
151438
151382
151351
151352
151418
151367
151376
151400
151360
151351
151392
151306
151281
151331
151423
151440
151476
151492
151461
151451
151521
151462
151386
151300
151302
151334
151414
151442
151416
151471
151462
151382
151395
151425
151353
151355
151428
151437
151397
151417
151515
151475
151455
151454
151389
151363
151403
151398
151418
151495
151532
151456
151420
151384
151410
151435
151415
151453
151439
151445
151425
151349
151271
151220
151258
151410
151556
151506
151434
151466
151438
151406
151454
151342
151302
151331
151389
151383
151332
151339
151404
151370
151327
151199
151288
151298
151392
151456
151454
151432
151445
151426
151395
151310
151308
151327
151339
151350
151358
151404
151393
151402
151424
151387
151413
151418
151465
151447
151395
151444
151409
151367
151334
151309
151366
151310
151364
151425
151431
151426
151488
151470
151410
151362
151359
151393
151326
151377
151373
151421
151435
151390
151322
151304
151344
151326
151400
151388
151351
151351
151372
151319
151251
151247
151296
151268
151269
151324
151218
151204
151274
151218
151269
151225
151155
151226
151323
151343
151371
151276
151191
151212
151086
151012
151012
151025
151085
151129
151148
151186
151170
151162
151047
150979
150964
151001
151020
150984
150883
150879
150885
150891
150881
150891
150836
150815
150840
150941
150990
150997
151040
150974
151063
151062
151001
150928
150917
150936
151002
151010
151054
151009
150927
150893
150879
150812
150826
150870
150882
150866
150920
150958
150917
150838
150814
150790
150808
150738
150758
150845
150920
150900
150862
150866
150922
150830
150812
150872
150863
150878
150950
150952
150890
150837
150881
150914
150888
150921
150790
150781
150803
150784
150779
150813
150908
150859
150891
150941
150861
150856
150905
150875
150810
150795
150853
150789
150791
150880
150868
150787
150787
150807
150782
150669
150677
150636
150679
150697
150644
150618
150728
150775
150829
150903
150898
150750
150638
150745
150722
150768
150789
150802
150743
150679
150760
150755
150797
150803
150795
150828
150807
150803
150755
150666
150678
150695
150710
150778
150795
150797
150855
150782
150736
150695
150672
150589
150570
150688
150758
151068
151229
151104
150920
150782
150786
150738
150711
150679
150610
150594
150547
150474
150396
150227
150191
150200
150207
150228
150229
150291
150379
150376
150361
150296
150310
150384
150465
150574
150615
150585
150562
150555
150504
150486
150505
150539
150590
150632
150606
150646
150687
150722
150649
150553
150611
150495
150453
150515
150522
150591
150724
150788
150757
150668
150706
150728
150739
150745
150701
150585
150634
150735
150733
150747
150726
150730
150823
150845
150739
150738
150843
150893
150865
150759
150726
150714
150740
150818
150807
150833
150865
150875
150816
150746
150784
150782
150742
150840
150828
150826
150978
150943
150836
150782
150809
150794
150805
150854
150856
150933
150956
150894
150795
150688
150672
150688
150719
150812
150858
150840
150831
150844
150713
150719
150832
150854
150857
150888
150897
150874
150861
150848
150752
150731
150844
150935
150787
150793
150780
150798
150864
150855
150750
150671
150684
150699
150673
150736
150693
150660
150648
150649
150625
150593
150663
150615
150502
150510
150593
150615
150659
150714
150724
150630
150592
150557
150513
150521
150521
150558
150594
150689
150697
150550
150506
150534
150589
150640
150561
150587
150626
150680
150566
150511
150556
150538
150511
150527
150497
150534
150604
150651
150594
150481
150473
150479
150456
150570
150568
150572
150582
150635
150578
150597
150655
150599
150488
150527
150578
150601
150688
150702
150660
150553
150560
150513
150554
150615
150569
150580
150619
150604
150632
150647
150593
150557
150612
150612
150585
150570
150648
150642
150600
150514
150528
150494
150447
150514
150565
150579
150562
150515
150510
150475
150423
150328
150285
150411
150445
150426
150398
150446
150397
150357
150366
150367
150413
150473
150419
150381
150386
150343
150276
150218
150244
150295
150146
150190
150249
150303
150317
150307
150258
150171
150254
150243
150199
150250
150204
150269
150247
150267
150238
150160
150124
150073
150042
150038
150000
150112
150214
150408
150302
150189
150192
150174
150056
150056
150019
150169
150313
150338
150309
150245
150233
150226
150192
150186
150137
150155
150162
150239
150203
150068
150082
150118
150092
150127
150086
150185
150199
150212
150166
150075
150076
150072
150025
150046
149999
150030
150038
150110
150103
150124
150194
150206
150116
149984
150013
150089
150112
150163
150219
150087
150107
150112
150044
150085
150076
150092
150100
150082
149955
149848
149905
149916
149936
150039
150101
150070
149969
149987
149941
149852
149889
149910
149874
149909
149931
149955
149951
149971
149877
149754
149739
149782
149820
149944
149925
149976
149993
149938
149881
149807
149830
149788
149797
149850
149868
149929
149938
149976
149850
149797
149877
149905
149917
149928
149793
149761
149819
149836
149933
149900
149855
149852
149853
149867
149857
149886
149887
149920
149873
149801
149769
149756
149744
149804
149922
150010
150024
149954
149973
149924
149918
149912
149890
149921
149935
149980
149979
149959
149905
149827
149813
149834
149851
149960
149953
149925
149986
149966
149884
149823
149806
149772
149735
149727
149795
149881
149885
149899
149826
149694
149682
149742
149757
149779
149748
149813
149843
149894
149822
149720
149800
149762
149576
149668
149838
149872
149835
149887
149823
149765
149754
149782
149723
149748
149731
149813
149812
149844
149856
149881
149836
149829
149868
149938
149999
150062
150078
150124
150074
149916
149910
149918
149851
149813
149705
149665
149582
149569
149551
149423
149378
149459
149422
149389
149461
149460
149464
149552
149608
149512
149531
149575
149600
149660
149711
149828
149836
149934
149940
149841
149821
149823
149800
149822
149885
149886
149888
149898
149881
149833
149673
149696
149825
149886
149960
149903
149843
149890
149932
149865
149778
149740
149720
149732
149796
149934
149974
149965
149947
149815
149835
149847
149866
149965
149989
149975
149926
149907
149894
149824
149817
149836
149902
149860
149884
149934
149971
149977
150022
149882
149866
149916
149890
149836
149850
149885
149857
149835
149843
149736
149839
149890
149876
149931
149926
149981
150017
150022
149980
149888
149902
149960
149984
149877
149859
149899
149957
149960
150006
149957
149949
149920
149921
149922
149933
149979
149988
150025
149974
149912
149896
149881
149868
149859
149875
149959
149963
150037
150124
149948
149887
149890
149930
149926
149920
149937
149929
149930
149953
149886
149917
149883
149824
149778
149796
149835
149826
149881
149851
149733
149777
149765
149716
149678
149682
149752
149711
149624
149696
149707
149773
149785
149737
149688
149629
149621
149645
149683
149741
149735
149702
149670
149595
149597
149681
149738
149731
149786
149760
149645
149666
149703
149659
149642
149659
149736
149763
149802
149805
149765
149657
149553
149554
149620
149745
149785
149763
149681
149604
149667
149743
149831
149798
149711
149698
149708
149709
149770
149866
149750
149760
149725
149677
149671
149665
149766
149788
149803
149808
149710
149653
149640
149628
149628
149685
149765
149797
149769
149745
149669
149676
149673
149627
149559
149602
149674
149702
149761
149739
149620
149629
149638
149626
149592
149606
149681
149683
149648
149619
149592
149602
149576
149538
149589
149677
149782
149761
149715
149730
149624
149600
149619
149645
149606
149662
149703
149712
149768
149791
149733
149618
149639
149663
149692
149728
149813
149780
149686
149693
149637
149581
149604
149658
149645
149628
149634
149735
149816
149834
149737
149635
149568
149552
149561
149584
149683
149674
149685
149716
149676
149623
149625
149662
149587
149601
149670
149670
149628
149616
149519
149522
149532
149566
149580
149566
149567
149657
149638
149619
149470
149442
149450
149411
149405
149436
149489
149563
149531
149484
149492
149525
149502
149445
149379
149331
149317
149265
149264
149393
149381
149409
149440
149402
149293
149293
149403
149442
149451
149431
149379
149280
149280
149300
149232
149186
149315
149389
149338
149360
149309
149257
149234
149257
149181
149133
149214
149236
149130
149123
149102
149177
149113
149142
149065
148998
149029
149064
149111
149110
149063
149059
149034
149035
148986
149002
149078
149129
149146
149195
149063
149005
148999
148943
148914
149003
149056
149034
149038
149069
148977
148926
148905
148846
148801
148798
148846
148843
148760
148810
148919
148939
148905
148904
148897
148837
148790
148747
148770
148763
148689
148680
148757
148712
148668
148681
148721
148730
148764
148834
148681
148603
148532
148482
148445
148469
148549
148477
148452
148459
148478
148490
148449
148413
148398
148348
148396
148449
148400
148314
148249
148192
148225
148282
148237
148197
148314
148417
148381
148376
148268
148164
148125
148156
148186
148128
148203
148183
148188
148261
148311
148338
148306
148264
148241
148179
148235
148158
148019
147967
147904
147786
147672
147687
147552
147390
147457
147488
147507
147542
147449
147454
147454
147430
147458
147518
147546
147625
147643
147651
147673
147704
147678
147634
147557
147526
147599
147702
147707
147673
147594
147554
147514
147512
147564
147549
147583
147640
147510
147449
147464
147507
147450
147486
147460
147360
147401
147410
147373
147421
147378
147322
147294
147281
147247
147217
147334
147383
147353
147321
147225
147168
147128
147155
147164
147103
147119
147096
147066
147042
147061
147121
147095
147085
147021
146926
146967
146955
146956
146992
146906
146876
146960
146935
146868
146794
146760
146810
146907
146907
146854
146821
146759
146725
146693
146738
146856
146764
146713
146734
146666
146645
146621
146649
146640
146597
146651
146662
146676
146702
146690
146613
146524
146450
146464
146491
146578
146610
146580
146603
146570
146465
146320
146263
146313
146247
146273
146298
146330
146403
146388
146308
146285
146250
146200
146163
146182
146141
146209
146259
146180
146182
146118
146082
146025
146040
146055
146072
146009
146018
145982
146002
145957
145989
146000
145906
145898
145936
146000
146054
145919
145824
145805
145815
145831
145842
145963
145989
145921
145870
145866
145903
145878
145829
145814
145753
145749
145791
145783
145825
145791
145706
145634
145635
145601
145623
145673
145709
145743
145736
145645
145608
145618
145589
145599
145508
145526
145489
145556
145586
145512
145541
145596
145521
145458
145473
145502
145544
145497
145458
145450
145413
145350
145395
145359
145340
145408
145399
145328
145322
145280
145308
145265
145267
145209
145248
145358
145336
145290
145305
145268
145152
145121
145102
145120
145135
145179
145141
145220
145338
145210
145191
145161
145101
145122
145051
145081
145087
145062
145061
145053
145059
145073
145117
145126
145065
145072
145143
145161
145119
145080
145009
144917
144920
144977
144898
144944
144999
144963
144944
145008
144997
144953
144904
144911
144862
144936
144894
145006
145047
145076
145042
144847
144858
144846
144743
144831
144939
144950
144927
144876
144890
144869
144809
144817
144778
144805
144855
144865
144863
144860
144830
144760
144786
144759
144657
144662
144686
144724
144763
144758
144713
144750
144706
144625
144667
144672
144628
144637
144653
144598
144626
144641
144678
144720
144715
144599
144614
144628
144674
144650
144600
144535
144478
144481
144392
144498
144584
144625
144573
144552
144558
144490
144496
144463
144390
144412
144457
144450
144442
144515
144530
144566
144523
144500
144481
144470
144482
144514
144534
144473
144459
144463
144428
144432
144364
144397
144462
144441
144502
144513
144522
144470
144433
144418
144367
144409
144441
144471
144403
144328
144381
144379
144277
144376
144414
144444
144400
144385
144382
144375
144403
144278
144247
144250
144181
144258
144378
144452
144457
144352
144319
144296
144254
144291
144223
144280
144319
144286
144251
144252
144261
144303
144239
144208
144157
144148
144221
144275
144280
144294
144332
144318
144340
144419
144242
144363
144414
144403
144391
144343
144411
144451
144401
144312
144174
144128
144135
144065
143996
143960
143858
143674
143578
143603
143618
143774
143897
143933
143908
143892
143933
143895
143886
143994
144037
144119
144213
144241
144222
144150
144174
144104
144102
144107
144079
144137
144152
144188
144229
144253
144244
144210
144133
144166
144110
144096
144137
144187
144154
144182
144165
144161
144158
144110
144032
144181
144221
144250
144258
144242
144254
144013
143978
143959
144007
144155
144267
144292
144243
144253
144189
144160
144148
144146
144038
144003
144073
144148
144213
144215
144257
144100
144025
144033
143998
144052
144122
144206
144224
144159
144101
144045
144105
144092
144034
144011
144066
144226
144232
144212
144258
144167
144160
144159
144067
144045
144071
144105
144132
144292
144372
144337
144208
144195
144148
144207
144219
144229
144252
144238
144206
144182
144110
144084
144044
144048
144108
144147
144166
144174
144160
144061
143940
143969
144029
143956
143967
144020
143939
143990
143939
143870
143790
143849
143879
144024
144099
144102
144004
143957
143975
143954
143903
143821
143706
143723
143844
143950
143912
143868
143975
143938
143869
143907
143866
143868
143858
143788
143719
143812
143839
143966
143957
143947
143855
143900
143964
143982
143917
143935
143961
144002
143906
143883
143861
143936
144002
144023
143996
143978
144059
144016
143946
143882
143825
143840
143883
143914
143972
143989
144129
144088
143968
143976
143924
143998
144014
143966
143955
143960
143990
143962
143993
144009
143974
143957
143985
143926
143867
143908
143935
143855
143852
143989
144035
144059
144039
144037
144006
143974
144087
143989
143918
143923
143824
143920
144043
144001
144125
144121
144010
143995
144023
143980
144035
144020
144058
144118
144129
144091
144084
144022
144053
144038
144049
144052
144101
144153
144201
144251
144216
144126
144099
144151
144183
144207
144081
144162
144192
144166
144262
144259
144146
144166
144144
144151
144200
144216
144192
144147
144226
144251
144207
144178
144090
144128
144197
144223
144311
144270
144230
144209
144131
144150
144160
144122
144121
144212
144264
144340
144381
144317
144253
144262
144085
144161
144262
144325
144344
144325
144294
144278
144283
144222
144170
144221
144271
144236
144280
144270
144259
144281
144313
144261
144257
144284
144311
144293
144311
144303
144309
144285
144258
144284
144189
144168
144285
144318
144310
144342
144396
144279
144267
144279
144234
144229
144364
144421
144353
144387
144449
144346
144286
144290
144279
144299
144399
144413
144391
144339
144346
144328
144315
144333
144332
144352
144430
144405
144436
144440
144465
144424
144399
144395
144360
144382
144288
144291
144377
144338
144328
144283
144226
144240
144304
144395
144357
144413
144455
144444
144502
144496
144415
144360
144288
144277
144303
144352
144365
144346
144476
144400
144367
144298
144288
144304
144344
144340
144429
144414
144400
144434
144428
144372
144298
144342
144486
144490
144459
144499
144635
144690
144643
144570
144546
144531
144565
144617
144647
144573
144553
144532
144414
144325
144214
144137
144056
144032
144026
144007
144057
144017
144045
143980
143907
143990
144170
144221
144288
144317
144441
144379
144352
144322
144274
144312
144413
144487
144634
144572
144549
144517
144431
144379
144324
144348
144473
144550
144608
144535
144538
144552
144494
144435
144450
144474
144477
144512
144526
144534
144525
144587
144583
144538
144425
144397
144470
144569
144542
144525
144578
144576
144477
144454
144495
144528
144566
144685
144780
144696
144673
144634
144595
144578
144555
144504
144523
144589
144667
144630
144666
144660
144619
144646
144631
144616
144683
144795
144730
144753
144849
144858
144732
144648
144625
144746
144714
144718
144773
144745
144824
144923
144885
144832
144788
144823
144854
144891
144887
144835
144807
144793
144744
144822
144844
144897
144942
145024
145000
144944
144950
144916
144836
144853
144800
144789
144767
144830
145017
145029
145021
144957
144857
144830
144886
144910
144902
144943
144856
144782
144784
144737
144598
144643
144842
144933
144932
144914
144916
144873
144872
144847
144792
144731
144688
144729
144820
144952
144953
144895
144939
144950
144889
144867
144820
144864
144897
144919
144952
144970
144955
144901
144905
144860
144870
144892
144933
144962
144916
144937
144998
145005
145011
145033
144989
144995
145040
145058
145052
144992
145039
145031
145049
145012
145017
145038
145072
145152
145188
145140
145192
145195
145075
145071
145013
144978
144996
145067
145148
145182
145304
145205
145157
145190
145157
145151
145175
145207
145214
145149
145148
145108
145031
145115
145167
145209
145196
145221
145247
145194
145252
145256
145203
145172
145104
145141
145098
145117
145182
145180
145258
145269
145232
145154
145110
145161
145186
145269
145323
145323
145362
145215
145181
145149
145091
145108
145198
145346
145400
145313
145346
145363
145277
145255
145282
145299
145268
145289
145311
145295
145322
145377
145380
145400
145368
145404
145393
145392
145444
145436
145457
145494
145478
145438
145319
145351
145337
145411
145326
145350
145513
145587
145550
145459
145407
145413
145392
145462
145500
145508
145525
145574
145602
145552
145437
145436
145466
145501
145523
145523
145581
145606
145550
145506
145492
145457
145454
145537
145529
145516
145552
145584
145656
145630
145579
145588
145551
145533
145570
145590
145641
145614
145580
145546
145509
145635
145575
145512
145636
145619
145655
145698
145609
145544
145568
145533
145564
145638
145672
145627
145623
145664
145642
145632
145567
145578
145548
145574
145609
145577
145590
145606
145537
145502
145442
145564
145663
145751
145750
145738
145739
145672
145718
145734
145712
145716
145678
145669
145705
145716
145861
145929
145837
145782
145722
145720
145736
145752
145760
145771
145845
145809
145792
145740
145697
145689
145671
145651
145766
145854
145881
145867
145757
145712
145728
145738
145696
145779
145827
145717
145784
145820
145773
145778
145773
145837
145855
145806
145809
145824
145902
145976
145912
145838
145786
145831
145875
145899
145944
145925
145994
146056
146011
146044
146002
146064
146087
146065
146170
146114
146106
146089
145983
145867
145775
145792
145747
145639
145564
145493
145417
145466
145575
145574
145565
145598
145549
145623
145680
145704
145795
145846
145855
145826
145851
145891
145910
145951
145996
145947
146046
146043
146010
145976
145940
145977
145989
145976
145963
145980
146015
146125
146044
146024
146005
146018
145913
145987
146101
146030
146076
146087
146175
146184
146116
146058
145961
146007
146112
146173
146209
146201
146182
146111
146094
146100
146072
146116
146186
146196
146237
146215
146125
146111
146080
146136
146159
146133
146202
146188
146186
146253
146250
146140
146058
146092
146135
146226
146416
146370
146340
146354
146296
146228
146141
146105
146188
146275
146386
146362
146466
146451
146378
146392
146338
146330
146307
146326
146443
146418
146411
146503
146536
146442
146369
146388
146362
146358
146414
146394
146379
146395
146406
146445
146341
146352
146409
146394
146457
146424
146514
146440
146376
146378
146336
146381
146353
146336
146402
146337
146327
146330
146365
146300
146271
146306
146237
146226
146283
146267
146240
146286
146290
146292
146257
146311
146302
146247
146239
146215
146247
146318
146353
146357
146372
146311
146323
146286
146300
146276
146361
146381
146412
146339
146276
146305
146349
146314
146318
146326
146338
146379
146406
146328
146286
146336
146364
146360
146355
146346
146424
146381
146363
146365
146341
146381
146385
146407
146495
146424
146378
146424
146392
146349
146394
146404
146349
146367
146462
146486
146515
146444
146384
146357
146365
146393
146416
146387
146415
146453
146403
146405
146381
146352
146349
146352
146322
146320
146374
146433
146463
146466
146469
146393
146368
146360
146390
146363
146400
146335
146354
146421
146416
146356
146308
146278
146295
146310
146389
146438
146442
146487
146470
146330
146291
146290
146307
146353
146371
146354
146400
146414
146431
146389
146330
146362
146350
146298
146375
146419
146446
146456
146491
146397
146356
146403
146459
146435
146422
146463
146500
146492
146429
146375
146332
146371
146400
146398
146423
146446
146496
146578
146506
146417
146337
146273
146254
146298
146415
146438
146471
146566
146551
146500
146441
146428
146398
146458
146544
146488
146495
146484
146427
146317
146269
146349
146377
146489
146515
146460
146511
146486
146453
146433
146412
146433
146419
146413
146483
146461
146475
146501
146513
146484
146495
146409
146373
146371
146475
146518
146504
146472
146434
146352
146352
146463
146496
146524
146560
146537
146507
146549
146578
146590
146473
146461
146519
146557
146532
146517
146537
146543
146550
146569
146470
146437
146447
146446
146537
146611
146615
146612
146574
146589
146595
146645
146595
146600
146562
146502
146517
146583
146567
146607
146587
146576
146551
146524
146571
146629
146768
146835
146791
146683
146582
146625
146620
146543
146547
146505
146538
146567
146580
146603
146573
146560
146597
146578
146575
146583
146638
146642
146690
146696
146615
146610
146650
146607
146612
146551
146546
146671
146702
146633
146588
146639
146671
146657
146701
146661
146625
146640
146644
146590
146516
146537
146538
146557
146675
146711
146758
146734
146722
146734
146692
146697
146711
146795
146875
146867
146782
146854
146893
146810
146745
146648
146514
146473
146451
146459
146389
146314
146232
146156
146110
146138
146154
146190
146201
146258
146418
146361
146399
146455
146450
146502
146496
146446
146464
146530
146683
146755
146762
146674
146654
146652
146643
146641
146634
146770
146801
146767
146771
146784
146596
146602
146675
146685
146726
146726
146755
146755
146790
146698
146645
146685
146691
146674
146672
146655
146776
146833
146906
146833
146762
146783
146754
146709
146749
146738
146765
146766
146809
146813
146733
146793
146828
146782
146779
146825
146822
146846
146885
146833
146736
146712
146745
146826
146800
146842
146908
146951
146922
146873
146817
146775
146777
146860
146882
146934
146969
146979
147012
146983
146883
146878
146907
146953
146996
146958
146984
147020
147125
147109
146995
146972
147005
147002
147014
147055
147099
147089
147062
147027
146884
146889
147042
147093
147179
147169
147123
147148
147160
147075
146979
147009
146951
146946
147039
147035
147141
147147
147078
147002
146957
147041
147065
146895
146912
146947
146978
146984
146949
146867
146764
146833
146863
146852
146904
147024
147092
147093
147114
147070
146983
146949
146919
146904
146871
146933
146958
146933
147040
147047
146958
146942
146961
146900
146899
146975
147007
147011
147052
147018
146950
146902
146909
146922
146950
146974
147048
147058
147107
147168
147042
147029
147039
147040
147075
147027
147148
147165
147178
147145
147082
147101
147049
147006
147089
147148
147185
147152
147148
147141
147067
147052
147114
147114
147034
147055
147176
147225
147217
147149
147074
147119
147097
147109
147131
147204
147308
147280
147284
147218
147208
147217
147177
147189
147175
147219
147278
147320
147306
147271
147184
147178
147144
147128
147194
147234
147231
147304
147276
147296
147293
147220
147190
147140
147121
147218
147323
147380
147367
147353
147304
147251
147251
147225
147247
147292
147346
147366
147382
147324
147232
147227
147249
147185
147129
147199
147302
147322
147333
147380
147316
147269
147240
147236
147373
147392
147426
147415
147420
147421
147302
147247
147239
147265
147295
147394
147427
147445
147391
147335
147274
147338
147288
147302
147418
147384
147396
147445
147440
147432
147355
147369
147328
147283
147317
147392
147500
147486
147444
147402
147330
147334
147374
147395
147409
147456
147480
147511
147517
147468
147420
147404
147374
147334
147351
147346
147393
147434
147456
147460
147372
147377
147365
147414
147408
147434
147493
147442
147472
147464
147400
147426
147394
147411
147480
147418
147498
147481
147554
147567
147463
147414
147401
147436
147491
147469
147419
147457
147515
147534
147536
147534
147521
147466
147432
147440
147497
147534
147532
147489
147402
147410
147464
147512
147490
147491
147550
147567
147537
147561
147540
147587
147567
147547
147526
147548
147576
147591
147594
147630
147549
147556
147544
147472
147467
147493
147515
147643
147668
147700
147427
147414
147389
147361
147456
147488
147575
147620
147670
147599
147555
147547
147566
147497
147443
147473
147564
147552
147566
147611
147520
147495
147537
147500
147435
147442
147543
147566
147567
147628
147572
147613
147639
147554
147540
147638
147801
147873
147814
147808
147736
147659
147638
147579
147534
147496
147543
147516
147451
147474
147172
147060
147011
147087
147131
147187
147300
147259
147229
147237
147201
147311
147329
147272
147302
147381
147425
147466
147588
147639
147521
147551
147523
147557
147655
147655
147648
147593
147576
147577
147562
147517
147515
147557
147592
147571
147634
147746
147702
147657
147581
147533
147565
147607
147591
147573
147764
147715
147647
147641
147543
147553
147599
147621
147562
147534
147673
147693
147658
147644
147621
147571
147541
147515
147549
147670
147754
147737
147700
147715
147700
147663
147525
147531
147504
147531
147537
147561
147576
147597
147580
147578
147593
147625
147614
147695
147709
147713
147718
147715
147683
147632
147651
147675
147626
147619
147693
147640
147629
147750
147760
147746
147785
147806
147798
147704
147754
147796
147804
147807
147762
147783
147743
147681
147633
147632
147704
147833
147865
147860
147790
147755
147703
147700
147633
147540
147617
147733
147756
147811
147803
147725
147638
147606
147597
147556
147525
147533
147593
147716
147709
147692
147708
147652
147672
147623
147603
147682
147670
147659
147544
147492
147480
147567
147628
147607
147682
147649
147661
147643
147549
147653
147646
147660
147626
147616
147614
147616
147601
147586
147532
147530
147574
147625
147608
147519
147575
147655
147649
147682
147687
147598
147661
147750
147749
147728
147704
147666
147717
147785
147766
147669
147661
147672
147635
147617
147726
147733
147806
147685
147634
147682
147616
147600
147543
147610
147711
147753
147762
147792
147746
147671
147657
147650
147643
147640
147687
147696
147655
147751
147769
147712
147686
147673
147659
147660
147716
147741
147708
147666
147579
147467
147462
147538
147527
147514
147675
147591
147603
147687
147713
147670
147604
147635
147666
147551
147571
147600
147624
147679
147627
147597
147539
147558
147624
147661
147765
147692
147685
147717
147678
147615
147525
147551
147569
147547
147614
147580
147523
147564
147663
147648
147605
147561
147565
147573
147637
147616
147531
147512
147527
147624
147619
147679
147647
147513
147562
147648
147672
147711
147663
147592
147530
147537
147518
147565
147708
147689
147638
147753
147619
147585
147610
147543
147495
147554
147637
147620
147691
147706
147665
147567
147604
147625
147521
147491
147557
147616
147688
147689
147588
147624
147642
147607
147595
147572
147608
147666
147681
147664
147626
147595
147570
147606
147603
147593
147608
147650
147662
147602
147593
147598
147545
147600
147584
147589
147682
147684
147680
147664
147625
147543
147496
147497
147554
147565
147667
147653
147687
147657
147618
147599
147601
147617
147598
147540
147621
147650
147632
147605
147626
147608
147638
147640
147569
147594
147634
147671
147648
147629
147612
147650
147602
147576
147538
147511
147523
147576
147625
147642
147702
147704
147588
147587
147569
147518
147658
147670
147617
147584
147544
147545
147516
147496
147506
147486
147692
147754
147731
147700
147670
147644
147640
147674
147615
147551
147657
147691
147704
147805
147738
147661
147652
147655
147634
147574
147555
147582
147562
147608
147578
147594
147602
147634
147604
147556
147554
147549
147577
147626
147600
147598
147577
147554
147505
147465
147494
147535
147652
147705
147660
147608
147572
147554
147653
147540
147576
147576
147565
147534
147518
147583
147599
147610
147646
147589
147612
147594
147672
147660
147637
147628
147580
147580
147615
147565
147713
147853
147862
147876
147862
147892
147861
147902
147773
147579
147587
147564
147544
147493
147462
147371
147224
147204
147191
147153
147252
147302
147319
147308
147425
147485
147463
147497
147519
147491
147666
147721
147760
147757
147744
147719
147670
147563
147621
147705
147771
147769
147787
147814
147753
147728
147689
147727
147729
147680
147735
147855
147888
147923
147885
147856
147845
147811
147769
147753
147820
147831
147839
147867
147844
147810
147830
147836
147800
147798
147839
147909
147915
147938
147925
147902
147800
147806
147839
147793
147808
147880
147866
147865
147859
147791
147729
147818
147868
147849
147944
147960
147973
147966
147902
147901
147930
147917
147924
147844
147936
147990
147989
148054
148049
148035
148008
147975
148014
147982
148063
148068
147918
147970
148007
148027
148040
148004
148021
147967
147971
148004
148004
148049
148138
148166
148021
147938
147872
147831
147923
148029
148075
148084
147998
148081
148062
148063
148006
147959
147989
147996
147982
147995
147951
147955
147952
147970
147953
147870
147948
147952
147946
147972
147932
147893
147895
147842
147761
147711
147814
147843
147861
147866
147817
147820
147822
147807
147820
147761
147772
147821
147880
147859
147881
147858
147824
147844
147774
147754
147742
147722
147872
147938
148037
147991
147791
147815
147829
147785
147779
147822
147856
147884
147923
147921
147925
147815
147761
147747
147818
147885
147939
147955
147910
147832
147792
147696
147726
147722
147838
147919
147936
147906
147878
147871
147789
147744
147730
147731
147810
147940
147991
147962
147955
147915
147789
147742
147828
147839
147796
147801
147788
147785
147717
147753
147802
147887
147864
147859
147820
147827
147829
147795
147798
147827
147752
147717
147671
147609
147707
147753
147793
147767
147795
147854
147780
147809
147752
147731
147814
147838
147815
147761
147756
147829
147812
147806
147812
147736
147806
147878
147849
147835
147799
147808
147790
147692
147737
147764
147777
147761
147803
147812
147726
147687
147766
147774
147798
147762
147732
147770
147804
147836
147820
147853
147831
147717
147677
147672
147718
147760
147787
147772
147752
147868
147848
147775
147761
147678
147732
147750
147760
147762
147734
147790
147782
147745
147710
147686
147687
147714
147740
147721
147736
147811
147740
147668
147684
147629
147706
147781
147777
147789
147801
147748
147667
147661
147663
147664
147597
147674
147785
147837
147846
147819
147785
147745
147713
147594
147645
147760
147881
147878
147794
147733
147768
147709
147714
147686
147672
147747
147768
147728
147749
147757
147743
147744
147737
147654
147652
147640
147678
147677
147578
147583
147604
147732
147818
147775
147733
147757
147878
147869
147751
147765
147737
147655
147651
147624
147673
147704
147727
147794
147814
147786
147767
147731
147698
147682
147740
147764
147831
147763
147680
147835
147741
147710
147693
147676
147602
147704
147735
147713
147721
147769
147752
147720
147769
147720
147740
147808
147846
147865
147777
147736
147737
147764
147746
147664
147692
147709
147712
147721
147706
147798
147811
147731
147622
147602
147679
147687
147764
147815
147794
147789
147727
147655
147611
147581
147591
147664
147729
147697
147667
147681
147587
147560
147537
147570
147672
147711
147708
147694
147636
147670
147656
147605
147570
147527
147509
147503
147484
147605
147705
147784
147766
147758
147770
147750
147673
147711
147812
147864
147814
147864
147865
147718
147637
147525
147502
147495
147504
147535
147498
147444
147349
147260
147259
147160
147181
147216
147214
147267
147276
147320
147337
147293
147331
147371
147377
147509
147610
147650
147660
147745
147696
147584
147524
147470
147534
147648
147636
147583
147663
147801
147739
147677
147610
147552
147544
147610
147690
147667
147663
147763
147748
147670
147589
147625
147656
147727
147712
147691
147688
147749
147715
147730
147745
147669
147651
147681
147733
147801
147773
147789
147718
147638
147633
147672
147642
147690
147771
147809
147870
147881
147788
147733
147663
147595
147625
147746
147743
147836
147861
147965
147879
147777
147758
147750
147729
147723
147717
147722
147692
147832
147923
147823
147799
147684
147654
147750
147825
147836
147788
147818
147885
147918
147978
147943
147949
147903
147944
147983
147978
148010
147931
147821
147775
147728
147731
147776
147896
147950
147876
147919
147853
147823
147795
147707
147742
147779
147833
147816
147813
147832
147813
147810
147736
147617
147674
147686
147679
147697
147775
147794
147830
147818
147870
147775
147682
147733
147719
147735
147744
147819
147741
147687
147724
147661
147675
147730
147787
147707
147671
147732
147701
147664
147638
147641
147659
147659
147675
147730
147726
147766
147760
147700
147671
147678
147671
147650
147693
147695
147684
147815
147812
147845
147765
147705
147694
147646
147672
147730
147738
147863
147877
147823
147812
147733
147693
147686
147735
147802
147840
147806
147776
147745
147678
147660
147702
147678
147686
147716
147655
147675
147839
147945
147796
147623
147659
147709
147769
147763
147671
147709
147689
147599
147541
147525
147567
147682
147752
147770
147701
147705
147670
147675
147653
147642
147692
147659
147717
147720
147670
147683
147693
147633
147600
147577
147593
147525
147550
147583
147658
147715
147640
147530
147579
147599
147621
147599
147651
147643
147532
147536
147543
147564
147531
147544
147555
147543
147592
147643
147595
147588
147605
147592
147642
147629
147546
147481
147601
147626
147568
147577
147579
147514
147488
147479
147558
147683
147627
147633
147603
147624
147637
147588
147550
147491
147492
147541
147543
147510
147475
147495
147545
147548
147563
147560
147597
147589
147597
147637
147612
147627
147660
147618
147612
147560
147533
147469
147542
147610
147627
147723
147693
147676
147652
147660
147680
147624
147639
147655
147632
147665
147678
147652
147643
147612
147614
147589
147580
147656
147651
147624
147730
147735
147650
147508
147510
147541
147719
147819
147785
147856
147825
147652
147657
147611
147661
147669
147780
147871
147827
147780
147792
147709
147682
147618
147551
147589
147672
147712
147688
147758
147764
147749
147733
147728
147738
147743
147772
147827
147787
147810
147816
147778
147736
147713
147659
147584
147604
147656
147679
147831
147893
147920
147829
147769
147753
147739
147827
147901
147944
147979
147892
147807
147770
147752
147722
147577
147610
147700
147740
147891
147866
147775
147780
147718
147705
147673
147724
147820
147782
147830
147872
147880
147892
147799
147773
147740
147794
147841
147839
147881
147835
147726
147726
147689
147696
147633
147664
147736
147753
147853
147844
147798
147753
147724
147693
147706
147750
147731
147763
147835
147884
147848
147778
147741
147769
147785
147882
147939
147916
148017
148050
148067
147908
147811
147788
147720
147693
147727
147648
147608
147572
147454
147319
147271
147255
147149
147219
147330
147339
147460
147536
147531
147510
147468
147460
147509
147636
147733
147748
147815
147834
147749
147644
147586
147645
147613
147663
147748
147696
147747
147778
147797
147766
147746
147772
147731
147772
147791
147713
147742
147743
147727
147640
147676
147716
147809
147931
147907
147848
147887
147881
147856
147763
147689
147746
147709
147710
147795
147771
147811
147782
147769
147669
147685
147702
147694
147812
147819
147825
147898
147880
147775
147746
147756
147688
147670
147768
147810
147764
147823
147870
147789
147774
147759
147750
147786
147857
147885
147845
147918
147938
147776
147707
147673
147766
147806
147854
147934
147933
147926
147927
147865
147830
147805
147872
147875
147865
147892
147866
147934
148044
148078
147955
147833
147847
147870
147909
147905
147951
148027
148003
147955
147909
147823
147819
147860
147891
147959
147930
147939
147938
147935
147878
147808
147855
147898
147754
147746
147726
147806
147938
147972
147857
147751
147751
147811
147823
147839
147778
147788
147756
147790
147799
147637
147687
147741
147836
147964
147920
147874
147887
147837
147818
147764
147743
147722
147811
147829
147754
147806
147778
147740
147702
147659
147694
147699
147697
147793
147777
147839
147902
147835
147840
147838
147772
147754
147745
147772
147783
147844
147802
147802
147781
147749
147763
147722
147662
147705
147802
147923
147997
147917
147762
147668
147750
147703
147745
147794
147803
147812
147795
147744
147704
147695
147709
147728
147738
147747
147794
147854
147925
147808
147698
147676
147671
147715
147725
147743
147816
147893
147888
147905
147725
147584
147679
147767
147731
147704
147706
147760
147758
147763
147630
147600
147624
147580
147543
147572
147684
147783
147765
147771
147720
147623
147696
147688
147761
147788
147756
147765
147718
147682
147615
147563
147697
147609
147623
147717
147722
147702
147753
147775
147706
147633
147614
147589
147570
147638
147657
147731
147785
147769
147627
147586
147722
147715
147731
147769
147721
147687
147657
147681
147677
147610
147576
147594
147673
147696
147715
147730
147690
147660
147682
147684
147712
147736
147626
147704
147623
147620
147670
147714
147641
147580
147587
147582
147583
147547
147542
147637
147758
147789
147734
147642
147696
147753
147714
147690
147648
147677
147702
147726
147666
147620
147664
147637
147653
147685
147643
147738
147790
147818
147775
147610
147628
147621
147596
147697
147658
147717
147763
147823
147723
147683
147722
147713
147664
147691
147684
147742
147733
147705
147671
147601
147633
147647
147671
147687
147703
147727
147716
147743
147730
147685
147638
147613
147615
147715
147695
147728
147736
147781
147810
147710
147695
147733
147710
147744
147702
147697
147759
147788
147710
147745
147773
147740
147708
147779
147767
147827
147783
147720
147651
147621
147657
147642
147767
147832
147794
147781
147822
147809
147782
147757
147764
147734
147722
147735
147688
147694
147663
147688
147738
147713
147703
147724
147737
147756
147657
147663
147717
147786
147728
147634
147633
147596
147555
147634
147673
147621
147630
147626
147622
147524
147575
147580
147526
147578
147638
147652
147664
147663
147612
147521
147525
147521
147478
147502
147519
147611
147596
147560
147649
147609
147713
147655
147634
147680
147636
147665
147822
147927
147930
147784
147729
147759
147724
147766
147744
147658
147634
147543
147498
147415
147281
147213
147198
147145
147171
147201
147245
147287
147227
147176
147194
147194
147208
147312
147378
147597
147634
147597
147581
147564
147590
147556
147513
147459
147473
147558
147697
147773
147629
147541
147602
147605
147578
147634
147656
147673
147654
147662
147652
147563
147548
147544
147551
147613
147591
147609
147615
147673
147637
147627
147585
147575
147625
147617
147624
147678
147699
147737
147739
147566
147577
147629
147588
147680
147797
147782
147806
147714
147694
147689
147645
147594
147563
147637
147719
147776
147730
147660
147615
147537
147568
147643
147602
147672
147621
147605
147627
147733
147755
147696
147686
147705
147676
147697
147669
147698
147716
147732
147653
147640
147620
147657
147675
147679
147706
147740
147779
147803
147743
147651
147632
147675
147631
147644
147632
147647
147691
147629
147665
147658
147666
147651
147626
147606
147651
147640
147644
147644
147607
147495
147498
147571
147563
147544
147536
147524
147500
147480
147465
147400
147454
147560
147590
147437
147393
147425
147457
147424
147386
147349
147423
147497
147418
147380
147397
147430
147489
147371
147395
147370
147396
147401
147311
147295
147321
147355
147329
147404
147404
147258
147225
147308
147308
147260
147296
147342
147258
147349
147408
147329
147277
147290
147295
147272
147330
147464
147457
147444
147445
147275
147254
147287
147306
147335
147326
147390
147384
147387
147323
147316
147335
147271
147248
147239
147230
147392
147374
147342
147333
147238
147216
147244
147217
147164
147184
147237
147239
147235
147291
147249
147225
147267
147209
147235
147262
147308
147290
147241
147284
147244
147257
147200
147224
147214
147209
147288
147319
147297
147280
147229
147172
147138
147169
147248
147201
147233
147192
147170
147216
147194
147212
147200
147124
147084
147122
147207
147185
147175
147138
147167
147178
147187
147188
147135
147132
147199
147249
147265
147233
147181
147127
147092
147031
147043
147173
147259
147212
147145
147144
147116
147171
147148
147100
147077
147010
147124
147210
147222
147178
147111
147052
147068
147056
147077
147074
147073
147102
147142
147186
147126
147101
147119
147048
146976
147062
147194
147194
147186
147132
147061
147016
147056
147084
147026
147047
147095
147116
147144
147162
147087
147071
147051
147008
147006
147020
147105
147159
147112
147112
147003
146974
146965
146962
146981
147005
147049
147079
147037
147065
147027
147050
147009
146932
146952
146998
147076
147096
147140
147138
147016
146955
146943
146971
146999
147057
147100
147040
147007
147003
146948
146936
146947
146973
147012
147001
147049
147091
147116
147135
147068
147082
147091
147106
146958
146950
147039
147079
147090
147127
146987
146920
147001
147013
146929
146944
147003
147141
147150
147147
147081
147039
147024
146952
146965
146992
147085
147101
147113
147087
147056
147000
147008
147003
147000
146970
147044
147140
147131
147132
147047
146978
146960
146976
146916
146956
147003
147020
147086
147105
146912
146895
146874
146869
146873
146891
147040
147107
147122
147066
146962
146940
146958
146951
146900
146909
146985
147064
147055
147009
146909
146893
146890
146851
146820
146792
146837
146863
146905
146986
146963
146990
147061
147029
146951
146998
147079
147093
147064
147097
147051
147165
147208
147176
147091
146973
147000
146973
146877
146751
146644
146594
146559
146498
146429
146408
146490
146590
146550
146506
146511
146535
146619
146710
146782
146820
146914
146912
146867
146815
146880
146885
146863
146858
146823
146824
146951
146934
146907
147014
146929
146874
146890
146939
146906
146884
146957
146991
147028
146998
146859
146824
146907
146859
146863
146866
146892
146933
146938
146987
147013
146957
146946
146945
146978
146928
146951
146963
146950
146995
146938
146924
146929
146966
146903
146883
146971
146967
147016
147097
147075
147062
147007
146936
146877
146846
146921
146967
147019
147036
147044
146974
147039
147050
146987
146896
146963
146925
146922
146957
146889
146844
146873
146864
146914
146978
147070
147043
147088
147102
147002
147003
147003
147007
146960
146976
147011
147043
147051
147137
147157
147005
146907
146890
146971
147011
147099
147190
147148
147121
147087
147056
147038
147044
147032
146885
146914
146996
147058
147094
147046
147025
146984
146973
146903
146868
146897
146929
146990
147052
147024
146909
146902
146846
146796
146742
146814
146903
146948
146998
146880
146769
146769
146827
146882
146864
146940
146928
146875
146866
146831
146826
146824
146851
146831
146776
146844
146883
146923
146938
146828
146835
146784
146891
146954
146861
146908
146885
146872
146880
146794
146752
146772
146880
146917
146905
146975
147030
147029
147021
146938
146841
146805
146829
146839
146794
146872
146987
147009
146965
146921
146878
146854
146856
146848
146799
146881
146922
146916
146945
146913
146887
146881
146918
146922
146896
146971
146999
147065
147112
147073
146993
147015
147044
146907
146900
146983
146945
146991
147028
147027
146996
146938
146924
146905
146933
146948
146970
146968
146945
146892
146884
146867
146867
146820
146769
146837
146879
146967
146975
146986
146912
146839
146841
146773
146770
146800
146858
146913
146882
146887
146866
146819
146889
146864
146782
146784
146845
146903
146938
146920
146925
146874
146848
146768
146729
146796
146808
146878
146887
146873
146864
146827
146739
146685
146720
146747
146809
146836
146823
146845
146877
146781
146751
146771
146698
146764
146788
146776
146761
146730
146745
146788
146837
146832
146635
146753
146786
146800
146842
146782
146793
146764
146781
146701
146645
146721
146790
146781
146784
146712
146746
146789
146814
146790
146707
146792
146889
146919
146849
146783
146740
146731
146705
146674
146707
146783
146781
146878
146829
146777
146770
146757
146726
146715
146703
146730
146785
146907
146899
146870
146813
146803
146645
146627
146625
146717
146807
146760
146765
146681
146670
146684
146681
146753
146757
146776
146850
146829
146842
146813
146816
146724
146683
146674
146638
146729
146816
146862
146922
146877
146801
146783
146753
146784
146718
146743
146813
146793
146865
146889
146751
146729
146769
146809
146697
146803
146845
146862
146888
146799
146763
146741
146703
146719
146689
146835
146900
146904
146853
146818
146809
146787
146730
146827
146793
146846
146866
146862
146829
146835
146839
146797
146756
146746
146682
146727
146800
146755
146694
146712
146755
146790
146763
146738
146703
146736
146812
146873
146818
146846
146816
146767
146651
146622
146602
146624
146731
146739
146760
146756
146745
146732
146698
146695
146652
146696
146738
146835
146854
146752
146729
146681
146720
146750
146676
146796
146903
146965
146975
146960
146945
146893
146830
146715
146553
146613
146666
146669
146625
146555
146470
146334
146148
146163
146177
146233
146278
146300
146269
146232
146244
146285
146336
146419
146403
146457
146532
146623
146616
146623
146639
146557
146550
146541
146454
146507
146524
146558
146595
146658
146693
146608
146533
146459
146452
146563
146673
146745
146714
146752
146749
146591
146605
146599
146496
146529
146623
146656
146648
146651
146668
146569
146550
146555
146548
146625
146652
146666
146624
146646
146671
146656
146639
146615
146496
146514
146582
146673
146703
146708
146678
146630
146600
146616
146657
146629
146585
146714
146730
146778
146788
146728
146716
146593
146575
146637
146645
146685
146745
146764
146771
146665
146682
146750
146701
146683
146740
146735
146719
146720
146752
146723
146760
146766
146711
146742
146727
146730
146736
146745
146843
146746
146759
146784
146765
146775
146842
146864
146857
146807
146790
146739
146662
146639
146604
146666
146717
146747
146796
146857
146855
146775
146692
146678
146582
146617
146625
146551
146580
146621
146649
146709
146687
146568
146594
146667
146650
146612
146660
146619
146586
146583
146599
146658
146596
146521
146540
146578
146593
146604
146621
146555
146538
146475
146456
146550
146568
146616
146580
146575
146454
146452
146501
146565
146473
146450
146468
146495
146520
146526
146596
146550
146429
146474
146383
146359
146457
146511
146551
146526
146586
146564
146535
146476
146409
146429
146433
146450
146487
146444
146468
146475
146451
146480
146395
146405
146457
146405
146429
146432
146456
146458
146479
146413
146327
146400
146458
146481
146495
146445
146447
146357
146246
146188
146240
146331
146431
146542
146546
146515
146501
146399
146297
146320
146278
146332
146488
146478
146432
146415
146451
146374
146323
146289
146267
146343
146424
146417
146379
146307
146330
146353
146278
146208
146213
146246
146259
146164
146141
146223
146351
146374
146317
146281
146268
146237
146210
146229
146223
146192
146256
146258
146269
146260
146276
146243
146262
146322
146347
146361
146359
146303
146225
146192
146157
146172
146188
146205
146226
146198
146199
146153
146044
146118
146160
146151
146205
146265
146260
146088
146196
146142
146146
146154
146133
146187
146151
146216
146226
146152
146144
146059
146084
146144
146114
146151
146190
146173
146191
146187
146230
146147
146080
146052
146003
145957
145997
146182
146226
146214
146253
146193
146114
146099
146054
146037
146084
146082
146109
146100
146064
146131
146134
146118
146050
146036
146175
146233
146213
146143
146134
146106
146026
146040
145996
146025
146101
146156
146163
146124
146199
146147
146101
146063
146063
146087
146117
146043
146093
146068
146043
146017
145943
146003
146126
146113
146190
146210
146178
146136
146141
146134
146070
146103
146065
146066
146140
146114
146146
146137
146117
146070
146077
146028
145992
146033
146074
146136
146159
146102
146157
146111
146070
146066
145983
145969
146011
146103
146141
146165
146214
146078
146009
146105
146143
146016
146007
146026
146048
145979
146021
146054
146052
145979
145941
146038
146187
146154
146121
146162
146183
146073
145974
145957
145984
145956
145942
145998
145983
146000
146097
146050
145962
145900
145879
145878
145928
145958
146014
146000
146100
146048
145989
145959
145920
145874
145923
145994
146002
145960
146011
146032
145973
145944
145923
145969
146074
146083
146128
146169
146176
146189
146144
146054
146029
145933
145882
145856
145775
145696
145673
145589
145512
145475
145474
145468
145465
145516
145532
145554
145698
145855
145766
145689
145724
145781
145840
145850
145819
145757
145743
145723
145793
145922
146073
146041
145965
145972
146017
145967
145933
145908
145850
145789
145835
145813
145838
145924
146048
146038
146024
146026
145962
145897
145887
145902
145831
145837
145845
145825
145962
146007
145883
145892
145931
145959
145898
145891
145911
145869
145852
145898
145821
145819
145815
145887
145973
146010
146011
145932
145914
145963
146018
146000
145931
145885
145849
145958
145955
145942
145959
145979
146011
145965
145884
145909
145901
145905
146030
145914
145969
145972
145874
145874
145900
145940
145948
145963
145961
146043
146046
145953
145908
145881
145897
145909
145968
146000
146077
146195
146204
146135
146025
146021
145985
145940
145923
145902
145924
145930
145984
146053
146000
145925
145957
146000
145969
145917
145932
145912
145916
145889
145786
145732
145664
145712
145829
145890
145889
145900
145973
145970
145918
145827
145747
145799
145794
145845
145918
145907
145913
145923
145857
145780
145676
145694
145680
145742
145798
145783
145791
145788
145807
145830
145726
145763
145755
145786
145775
145702
145799
145756
145790
145702
145593
145684
145745
145777
145823
145775
145787
145825
145837
145797
145710
145703
145709
145692
145760
145813
145837
145855
145825
145801
145743
145787
145769
145794
145849
145822
145816
145803
145748
145699
145605
145669
145718
145819
145815
145778
145777
145780
145773
145734
145733
145721
145704
145770
145807
145777
145834
145867
145914
145918
145710
145725
145737
145786
145795
145773
145803
145827
145763
145743
145704
145706
145741
145793
145807
145732
145760
145752
145670
145680
145709
145716
145683
145762
145828
145726
145787
145776
145681
145660
145706
145732
145728
145832
145823
145757
145801
145877
145734
145714
145666
145651
145623
145727
145740
145748
145844
145830
145740
145726
145625
145634
145626
145686
145741
145702
145748
145779
145698
145667
145596
145636
145607
145648
145709
145680
145661
145650
145592
145528
145542
145604
145651
145746
145719
145700
145717
145752
145669
145591
145535
145565
145618
145620
145665
145690
145736
145783
145753
145750
145563
145543
145621
145680
145667
145671
145687
145671
145587
145535
145514
145535
145555
145590
145656
145608
145676
145702
145675
145553
145505
145564
145618
145655
145630
145566
145586
145648
145631
145634
145634
145657
145663
145716
145749
145711
145698
145673
145633
145590
145489
145539
145596
145636
145736
145719
145723
145658
145585
145556
145576
145564
145512
145545
145604
145618
145653
145638
145563
145503
145463
145516
145600
145669
145658
145691
145716
145742
145673
145571
145523
145555
145551
145591
145645
145610
145588
145560
145538
145462
145443
145506
145640
145675
145661
145622
145687
145745
145598
145515
145435
145412
145429
145432
145492
145508
145572
145678
145612
145503
145434
145435
145389
145443
145501
145466
145458
145535
145517
145462
145425
145445
145432
145456
145553
145463
145457
145480
145406
145403
145390
145399
145373
145401
145434
145432
145475
145457
145422
145362
145345
145417
145391
145366
145432
145499
145560
145555
145547
145461
145430
145452
145501
145587
145663
145695
145715
145671
145624
145580
145476
145376
145301
145256
145216
145123
145117
145120
145097
145039
144967
145078
145089
145087
145151
145139
145134
145195
145334
145386
145305
145329
145309
145347
145427
145323
145381
145583
145629
145467
145381
145338
145302
145387
145496
145591
145614
145557
145474
145459
145439
145461
145461
145412
145424
145368
145487
145544
145511
145438
145460
145476
145417
145415
145453
145469
145474
145490
145487
145465
145297
145393
145389
145387
145456
145423
145480
145481
145445
145364
145320
145326
145271
145332
145433
145466
145508
145501
145404
145416
145427
145481
145435
145446
145419
145404
145466
145551
145562
145506
145411
145362
145343
145396
145431
145412
145473
145541
145520
145532
145430
145423
145383
145502
145551
145476
145508
145535
145521
145432
145436
145468
145409
145401
145365
145404
145516
145555
145449
145480
145473
145505
145453
145417
145467
145432
145455
145597
145538
145485
145474
145445
145408
145365
145383
145381
145419
145457
145475
145377
145380
145335
145341
145420
145445
145323
145352
145421
145452
145346
145300
145306
145259
145256
145348
145386
145386
145382
145338
145219
145198
145234
145210
145255
145287
145296
145310
145363
145325
145323
145246
145252
145218
145174
145234
145248
145349
145313
145278
145203
145146
145193
145170
145174
145272
145299
145289
145317
145309
145208
145142
145159
145127
145122
145211
145279
145328
145325
145279
145211
145198
145300
145225
145119
145144
145213
145221
145255
145251
145161
145093
145134
145082
145120
145237
145176
145174
145156
145185
145215
145212
145185
145091
145030
145095
145149
145216
145207
145159
145081
145104
145099
145081
145088
145128
145157
145208
145242
145191
145151
145153
145175
145227
145171
145162
145144
145171
145184
145168
145149
145078
145090
145019
145086
145198
145134
145140
145145
145148
145091
145026
144997
145005
144956
145058
145107
145125
145142
145109
145083
145082
145071
145019
144987
145105
145140
145281
145275
145153
145072
145043
145095
145085
145131
145174
145110
145081
145128
145139
145080
145110
145055
145025
145063
145054
145143
145191
145179
145130
145083
145078
145097
145142
145216
145248
145214
145218
145139
145142
145135
145127
145168
145157
145169
145197
145225
145310
145256
145233
145228
145159
145146
145071
145024
145094
145194
145308
145265
145212
145152
145139
145145
145128
145180
145226
145223
145213
145180
145205
145176
145132
145122
145120
145104
145220
145218
145200
145128
145149
145223
145075
145070
145099
145126
145135
145168
145197
145151
145139
145104
145038
145077
145178
145155
145165
145076
145062
145058
145129
145114
145082
145078
145060
145030
145033
145060
145096
145077
145071
145011
144978
144989
145047
145072
145136
145136
145137
145142
145109
145054
144981
145004
145044
145026
144966
144965
145060
145102
145107
145041
144985
144984
144953
144882
144964
145091
145155
145172
145086
145051
144990
144972
144931
144905
145012
145076
145104
145104
145143
145091
145055
145064
145050
144990
144962
144992
145126
145104
145201
145188
145082
145067
145068
145041
145016
144956
145022
145060
145054
145067
145000
145029
145171
145094
145017
145002
145046
145030
145009
144960
144915
145000
145014
145033
145024
144969
144984
144970
145024
145146
145028
144994
144982
144987
145002
145005
145053
145034
145039
145089
145044
145039
145035
145002
145012
145046
145123
145178
145286
145302
145172
145125
145132
145166
145201
145220
145171
145127
145138
145091
144897
144861
144766
144705
144652
144589
144566
144628
144616
144619
144565
144535
144532
144576
144624
144714
144848
144825
144848
144839
144844
144858
144815
144804
144825
144893
145043
145023
144981
144933
144822
144905
144961
144885
144892
144903
144975
145037
145061
144973
144850
144902
144865
144855
144884
144859
144933
144961
144960
144988
144902
144948
144918
144836
144859
144925
144985
144908
144844
144849
144846
144910
144930
144840
144864
144937
145002
144960
144863
144824
144755
144746
144818
144839
144855
144838
144876
144910
144910
144830
144803
144837
144820
144786
144760
144852
144933
144976
145031
144950
144835
144816
144809
144769
144831
144832
144869
144945
145009
145003
144907
144914
144926
144904
144898
144824
144820
144901
144964
144951
144932
144934
144862
144816
144789
144847
144930
144913
144925
144975
144956
144934
144866
144818
144829
144798
144841
144835
144814
144778
144739
144790
144868
144889
144839
144846
144883
144845
144917
144867
144837
144777
144662
144661
144712
144693
144735
144804
144801
144735
144630
144605
144633
144644
144597
144651
144725
144719
144718
144673
144621
144633
144665
144623
144547
144563
144665
144653
144636
144666
144651
144583
144575
144608
144543
144470
144550
144646
144695
144687
144598
144554
144559
144536
144555
144574
144722
144703
144641
144674
144571
144582
144579
144570
144455
144483
144579
144593
144582
144556
144552
144495
144552
144557
144510
144505
144664
144606
144562
144575
144511
144488
144429
144502
144565
144482
144517
144557
144600
144603
144492
144432
144400
144380
144359
144434
144554
144624
144574
144525
144455
144419
144378
144339
144382
144481
144602
144599
144550
144528
144421
144391
144366
144394
144410
144491
144485
144525
144547
144543
144392
144315
144337
144341
144309
144288
144306
144415
144506
144476
144432
144444
144435
144399
144373
144373
144397
144401
144366
144406
144326
144325
144354
144363
144367
144338
144292
144274
144328
144320
144236
144212
144209
144217
144276
144251
144285
144287
144284
144328
144243
144146
144180
144204
144159
144197
144305
144321
144331
144354
144147
144135
144121
144151
144151
144163
144222
144217
144176
144226
144172
144159
144202
144184
144142
144152
144206
144287
144257
144249
144195
144147
144126
144100
144068
144116
144185
144254
144317
144257
144182
144146
144130
144166
144131
144163
144231
144212
144199
144199
144181
144191
144154
144167
144138
144146
144207
144172
144180
144265
144212
144135
144100
144121
144177
144201
144275
144319
144299
144277
144222
144123
144088
144081
144123
144246
144410
144406
144364
144346
144239
144224
144232
144221
144230
144195
144240
144237
144243
144313
144243
144313
144249
144210
144168
144231
144292
144320
144328
144302
144226
144174
144189
144185
144142
144142
144181
144159
144100
144194
144271
144344
144303
144204
144167
144161
144192
144248
144207
144161
144054
143985
144033
144146
144058
144062
144181
144235
144260
144258
144157
144136
144155
144149
144125
144125
144129
144129
144183
144135
144093
144105
144015
143983
144002
144048
144081
144125
144241
144354
144315
144260
144242
144258
144232
144192
144254
144241
144245
144259
144232
144088
144009
143971
143876
143806
143795
143754
143717
143764
143598
143636
143623
143631
143639
143622
143786
143879
143898
143978
143938
143872
143869
143916
143878
143986
144116
144105
144052
144116
144075
144145
144154
144228
144204
144073
144155
144109
144056
144112
144090
144120
144133
144102
144056
144017
144088
144103
144099
144086
144028
143989
144053
144086
144130
144129
144150
144178
144181
144167
144120
144137
144183
144240
144172
144097
144162
144215
144178
144225
144143
144114
144146
144124
144089
144086
144164
144203
144244
144269
144206
144191
144196
144133
144109
144082
144183
144205
144148
144096
144052
144023
144110
144177
144209
144203
144241
144290
144305
144316
144267
144216
144234
144166
144119
144171
144228
144242
144213
144258
144267
144248
144270
144325
144231
144183
144211
144224
144254
144332
144338
144282
144288
144316
144269
144146
144204
144179
144238
144262
144264
144258
144145
144142
144163
144191
144277
144276
144288
144312
144267
144219
144131
144074
144009
144037
144097
144182
144168
144106
144113
144056
144085
144128
144153
144106
144048
144030
143995
144001
144019
143965
144007
144068
144071
144016
144077
144138
144060
144041
144037
144027
143981
143974
143951
143927
144035
144035
144007
144069
144031
144028
143989
143961
143929
143917
143972
143984
144003
143982
143993
144035
143952
143956
143967
143954
144028
144018
144055
144081
144029
143981
143936
143895
143870
143904
144025
144062
144062
144085
144032
143974
143988
144002
143997
143998
143961
143951
144002
144042
144033
144048
144020
144022
143976
143970
143990
144083
144076
144035
143960
143951
143996
144118
144087
143942
143937
144043
144067
144073
143999
143879
143919
143958
143920
143882
144014
144062
144062
144058
143961
143919
143923
143939
143922
143891
143974
144045
144066
144045
143962
143920
143844
143829
143840
143875
143978
144066
144016
144012
143960
143901
143873
143870
143878
143861
143926
143958
143972
143967
143920
143912
143880
143882
143872
143788
143845
143904
143941
143855
143845
143881
143887
143892
143891
143898
143914
143931
143951
143916
143837
143827
143864
143882
143825
143766
143875
143952
143940
144003
143982
143918
143786
143784
143831
143812
143880
143960
143985
143972
143947
143994
144022
143978
143880
143807
143898
143924
143885
143853
143878
143974
143974
143979
143947
143949
144013
143992
144019
143940
143970
143949
143918
143926
143911
143976
144083
144085
144093
144073
144002
143977
144003
144005
143952
143914
144010
144039
144075
144097
144035
143985
143911
143930
143983
143987
144039
144053
144078
144051
143994
143997
144062
144113
144002
143975
144071
144087
144068
144072
144059
144024
143987
143979
143978
143904
143970
144049
144023
144029
144047
144052
144020
144000
143989
143949
143986
144036
144059
144034
143986
143974
143878
143888
143958
143929
143977
143997
143957
143978
144010
144026
144083
144005
143974
143946
143965
144068
144072
144020
143966
143931
143932
143921
143792
143813
143935
143973
143923
144013
143930
143974
143913
143878
143862
143824
143844
143953
143928
143889
143901
143952
143986
143939
143897
143906
144042
144046
144104
144154
144154
144196
144112
144069
144038
143998
143985
143942
143909
143838
143744
143652
143594
143568
143622
143402
143418
143543
143542
143575
143570
143541
143517
143507
143491
143515
143598
143653
143725
143802
143754
143817
143873
143909
143849
143796
143840
143839
143832
143820
143861
143910
143874
143925
143988
143837
143799
143800
143876
143942
143981
143956
143923
143885
143907
143858
143850
143869
143926
143959
143970
143887
143849
143810
143818
143824
143837
143872
143968
143968
143894
143845
143817
143836
143820
143737
143796
143847
143890
143926
143948
143966
143953
143889
143949
143924
143951
144001
143962
143971
143974
143977
143968
143898
143828
143834
143938
144067
144071
144062
143979
143969
143933
143931
144026
143944
143936
143992
144048
144090
144140
144053
143933
143866
143914
143944
143928
143953
143986
144010
143981
144086
144077
144002
143965
143920
143935
144058
144093
144161
144099
144061
143995
143979
143941
143872
143917
143974
144032
144084
144144
144111
143973
143907
143928
143903
143953
143980
143971
144008
144017
143968
143837
143782
143787
143747
143881
144043
143959
143926
143948
143909
143843
143826
143840
143813
143894
143907
143962
144015
144042
143978
143860
143845
143837
143801
143868
143939
143937
143910
143849
143852
143833
143833
143814
143800
143778
143842
143860
143848
143833
143909
143885
143799
143746
143726
143801
143877
143954
144006
144042
144047
143892
143818
143797
143741
143844
143921
143961
143928
143898
143912
143900
143948
143928
143831
143867
143945
143891
143863
143841
143813
143773
143805
143872
143855
143858
143846
143835
143890
143931
143938
143904
143823
143842
143869
143869
143863
143851
143882
143942
143980
143895
143766
143722
143732
143791
143814
143923
143959
143982
143898
143872
143854
143771
143706
143796
143826
143774
143781
143790
143824
143787
143875
143899
143809
143779
143811
143832
143823
143834
143899
143822
143692
143704
143674
143659
143785
143913
143927
143909
143907
143846
143813
143795
143781
143779
143788
143851
143828
143804
143869
143791
143751
143818
143794
143749
143816
143836
143837
143871
143873
143819
143791
143735
143656
143717
143852
143925
143940
143822
143850
143874
143858
143840
143776
143762
143759
143799
143821
143778
143824
143851
143833
143805
143779
143848
143878
143872
143808
143749
143814
143822
143836
143796
143814
143802
143850
143949
144003
143893
143965
143923
143807
143823
143849
143802
143810
143797
143834
143836
143888
143887
143873
143823
143841
143869
143877
143913
143936
143982
143957
143878
143833
143914
143807
143885
143976
143943
143955
143882
143985
144041
144036
143996
143879
143869
143934
144015
144032
144038
144133
144135
143986
143936
143850
143877
143958
144052
144075
144082
144114
144043
143997
143997
143938
143937
144010
144085
144169
144122
144126
144038
144006
144036
144010
143948
144012
144115
144064
144007
144086
144123
144071
144030
143935
143932
143920
143998
144097
144217
144192
144097
144081
143978
143998
143970
144023
144035
143998
143987
144077
144106
143974
143972
143989
143979
143987
144059
144081
144059
144103
144054
143995
144025
144022
144009
144088
144082
144029
144023
144110
144137
144146
144151
144111
144140
144217
144338
144357
144342
144347
144288
144208
144132
144054
143980
143962
144001
143922
143815
143852
143769
143612
143586
143577
143646
143709
143714
143701
143752
143800
143824
143804
143866
143903
143977
144049
144105
144092
144053
144173
144263
144180
144131
144054
144052
144137
144171
144140
144115
144191
144248
144151
144120
144095
144133
144123
144194
144239
144210
144201
144165
144109
144077
144058
144200
144333
144245
144222
144208
144280
144330
144212
144242
144176
144152
144148
144226
144230
144224
144280
144335
144298
144264
144269
144204
144234
144302
144308
144220
144307
144303
144247
144189
144123
144142
144287
144383
144463
144383
144381
144389
144356
144299
144291
144310
144267
144280
144286
144393
144583
144517
144461
144421
144392
144451
144475
144436
144432
144430
144524
144541
144485
144480
144401
144313
144355
144391
144537
144552
144579
144532
144480
144454
144425
144428
144441
144459
144505
144495
144435
144471
144402
144432
144431
144480
144479
144508
144516
144418
144436
144404
144442
144463
144397
144360
144358
144435
144517
144507
144410
144480
144487
144442
144340
144291
144333
144362
144338
144289
144369
144419
144400
144348
144266
144319
144341
144411
144455
144394
144365
144365
144299
144305
144245
144300
144513
144535
144387
144334
144383
144414
144391
144342
144292
144334
144317
144408
144341
144252
144299
144320
144339
144362
144392
144421
144433
144457
144418
144404
144416
144455
144390
144318
144293
144382
144437
144485
144539
144409
144408
144470
144430
144451
144405
144401
144431
144463
144467
144414
144463
144476
144447
144455
144373
144285
144292
144383
144477
144541
144552
144482
144395
144403
144436
144514
144427
144436
144527
144473
144496
144486
144444
144377
144350
144364
144428
144453
144480
144460
144477
144438
144409
144365
144309
144286
144366
144465
144466
144450
144460
144435
144459
144417
144414
144370
144375
144467
144508
144441
144440
144516
144476
144401
144367
144386
144408
144470
144493
144509
144494
144420
144345
144298
144311
144345
144313
144494
144521
144492
144461
144389
144354
144312
144195
144151
144249
144380
144406
144390
144357
144358
144367
144342
144325
144351
144338
144345
144395
144410
144455
144537
144441
144361
144338
144308
144312
144365
144410
144342
144397
144505
144500
144389
144354
144426
144388
144367
144383
144384
144393
144340
144360
144353
144257
144249
144290
144445
144465
144410
144438
144449
144389
144332
144306
144352
144342
144358
144406
144341
144343
144373
144344
144350
144273
144261
144316
144406
144459
144391
144398
144452
144396
144369
144346
144320
144383
144369
144410
144402
144406
144440
144364
144316
144250
144261
144279
144325
144342
144322
144320
144390
144302
144296
144333
144382
144311
144326
144359
144310
144332
144373
144308
144255
144149
144124
144150
144250
144422
144363
144327
144404
144380
144293
144286
144277
144278
144300
144250
144211
144310
144382
144396
144324
144234
144252
144265
144276
144457
144434
144468
144500
144519
144466
144375
144337
144349
144489
144487
144485
144472
144414
144390
144253
144131
144073
144001
144003
143974
143885
143909
143908
143838
143818
143746
143758
143844
143991
144058
144040
144118
144205
144172
144153
144123
144194
144308
144275
144296
144271
144280
144329
144280
144199
144163
144212
144150
144203
144315
144316
144370
144368
144281
144274
144277
144239
144251
144206
144260
144266
144244
144258
144277
144275
144213
144293
144313
144317
144332
144328
144348
144345
144332
144302
144236
144259
144220
144207
144215
144209
144348
144400
144291
144246
144264
144344
144292
144286
144318
144300
144278
144258
144266
144312
144195
144233
144288
144356
144409
144336
144293
144310
144292
144271
144252
144284
144350
144424
144450
144385
144399
144456
144392
144357
144372
144287
144240
144257
144330
144362
144497
144512
144452
144383
144310
144351
144331
144365
144404
144428
144447
144413
144384
144307
144276
144265
144271
144316
144356
144405
144518
144539
144468
144397
144341
144328
144281
144275
144319
144329
144377
144333
144328
144352
144249
144227
144255
144266
144275
144243
144241
144274
144245
144168
144181
144293
144256
144202
144261
144249
144203
144180
144261
144221
144173
144152
144104
144123
144155
144194
144235
144284
144260
144227
144181
144179
144191
144227
144319
144185
144231
144267
144228
144291
144266
144190
144160
144151
144179
144097
144141
144157
144184
144167
144129
144179
144148
144153
144182
144212
144217
144193
144151
144131
144102
144157
144138
144154
144204
144189
144233
144257
144262
144135
143997
144140
144173
144128
144213
144193
144226
144271
144271
144270
144199
144107
144051
144103
144183
144235
144162
144202
144255
144285
144190
144249
144218
144203
144231
144238
144255
144255
144201
144083
144002
144061
144062
144136
144173
144137
144170
144216
144226
144138
144118
144174
144135
144088
144062
144040
144109
144139
144167
144138
144180
144207
144106
144118
144141
144126
144127
144095
144110
144077
143976
144131
144141
144159
144216
144179
144139
144139
144108
144038
143974
143995
144009
143985
144099
144102
144120
144203
144158
144092
143939
143932
143930
143989
144088
144133
144111
144127
144158
144130
144069
144060
143994
143959
144032
144098
144127
144164
144154
144123
144048
144016
143998
143983
144084
144181
144191
144191
144191
144175
144061
144010
144020
144004
144080
144090
144113
144154
144140
144129
144053
144043
144020
144017
144044
144122
144190
144216
144174
144129
144081
144102
144086
144064
144100
144088
144073
144151
144181
144176
144149
144199
144152
144066
144073
144105
144189
144216
144199
144207
144131
144163
144106
144006
144044
144115
144118
144224
144282
144207
144143
144259
144270
144204
144195
144226
144290
144276
144280
144200
144104
144163
144172
144164
144224
144165
144206
144252
144332
144273
144122
144162
144157
144173
144208
144176
144168
144219
144284
144231
144181
144243
144243
144193
144220
144261
144207
144242
144285
144229
144114
144116
144159
144101
144098
144185
144313
144285
144280
144240
144188
144213
144134
144130
144138
144135
144206
144235
144253
144189
144136
144163
144197
144195
144194
144167
144150
144176
144219
144158
144078
144147
144181
144106
144119
144140
144184
144237
144251
144172
144065
144069
144109
144095
144103
144200
144300
144355
144398
144344
144322
144371
144383
144307
144326
144370
144365
144316
144349
144262
144209
144147
144069
144003
143993
143940
143845
143815
143852
143823
143726
143689
143746
143768
143850
143945
143954
144012
144110
144078
144023
143985
144086
144122
144151
144162
144259
144273
144244
144283
144195
144118
144152
144158
144286
144288
144237
144204
144254
144312
144223
144156
144113
144064
144113
144183
144350
144399
144361
144263
144157
144162
144190
144171
144200
144215
144329
144328
144294
144262
144137
144185
144207
144117
144204
144235
144274
144286
144270
144262
144183
144309
144387
144344
144354
144369
144408
144430
144410
144326
144319
144314
144316
144278
144222
144317
144397
144401
144395
144425
144325
144307
144343
144336
144380
144372
144310
144322
144401
144332
144318
144403
144394
144311
144266
144303
144338
144444
144538
144467
144381
144379
144368
144298
144295
144381
144446
144518
144504
144480
144371
144326
144343
144309
144316
144338
144410
144497
144486
144487
144398
144399
144379
144363
144354
144367
144373
144357
144251
144262
144180
144209
144246
144243
144273
144243
144356
144433
144418
144288
144188
144166
144175
144161
144180
144173
144298
144281
144225
144166
144168
144243
144232
144203
144196
144182
144270
144312
144340
144301
144222
144174
144146
144126
144151
144253
144313
144245
144221
144227
144141
144256
144252
144214
144315
144271
144317
144331
144261
144236
144187
144263
144224
144225
144218
144109
144323
144357
144327
144284
144240
144264
144282
144233
144271
144317
144295
144225
144170
144151
144113
144190
144304
144326
144387
144330
144370
144360
144355
144327
144234
144216
144260
144240
144254
144291
144288
144381
144401
144420
144322
144275
144186
144150
144239
144232
144299
144360
144332
144320
144299
144295
144245
144250
144236
144172
144227
144372
144374
144313
144292
144231
144217
144176
144146
144161
144214
144217
144240
144266
144240
144234
144215
144196
144220
144207
144243
144233
144270
144297
144144
144124
144127
144218
144254
144251
144246
144243
144280
144279
144171
144122
144102
144052
144088
144150
144217
144177
144195
144216
144128
144114
144138
144133
144135
144150
144207
144225
144207
144164
144124
144129
144108
144112
144090
144112
144145
144138
144141
144246
144165
144107
144089
144073
144033
144047
144098
144145
144246
144210
144078
144057
144030
144008
144034
144067
144126
144193
144216
144157
144086
144127
144103
144061
144074
144104
144115
144129
144138
144078
144022
144015
144100
144147
144084
144056
144146
144170
144222
144271
144130
144020
144003
143984
144006
144083
144320
144323
144237
144251
144128
144079
144119
144084
144062
144078
144176
144174
144183
144220
144159
144211
144306
144264
144174
144108
144190
144254
144276
144296
144189
144208
144256
144229
144158
144128
144195
144246
144242
144256
144182
144181
144185
144169
144183
144247
144276
144247
144234
144247
144202
144205
144185
144154
144132
144140
144173
144230
144273
144239
144136
144100
144107
144114
144136
144221
144337
144283
144213
144202
144135
144159
144114
144158
144112
144070
144227
144225
144271
144337
144214
144234
144218
144158
144167
144185
144226
144309
144280
144261
144225
144260
144240
144131
144146
144217
144389
144411
144424
144450
144312
144211
144235
144254
144153
144022
144088
144119
144027
143946
143722
143644
143645
143692
143715
143850
143954
143939
144012
144062
144073
143980
143939
143996
144076
144027
144149
144224
144266
144250
144162
144210
144206
144229
144185
144164
144277
144367
144277
144292
144280
144232
144202
144108
144035
144053
144233
144346
144372
144423
144296
144270
144221
144201
144214
144200
144232
144279
144329
144320
144188
144246
144319
144250
144207
144188
144269
144326
144376
144374
144310
144352
144311
144257
144229
144249
144317
144261
144269
144340
144243
144197
144186
144193
144153
144152
144258
144340
144398
144433
144413
144386
144333
144298
144264
144286
144346
144377
144319
144315
144321
144294
144294
144371
144341
144384
144423
144331
144430
144467
144340
144331
144391
144375
144378
144352
144470
144504
144453
144494
144421
144313
144335
144401
144385
144343
144474
144543
144516
144521
144453
144421
144371
144377
144368
144381
144463
144476
144403
144379
144350
144312
144370
144405
144373
144278
144339
144418
144394
144306
144354
144287
144241
144251
144170
144137
144171
144210
144263
144422
144358
144362
144341
144256
144239
144233
144246
144255
144263
144318
144276
144223
144219
144232
144245
144261
144290
144292
144311
144361
144275
144222
144197
144190
144160
144185
144240
144280
144315
144335

[算法提取后的结构化特征]
# 由 EcgFeatureExtractor.extract() + toPromptText() 在手机端重建
# 与手表端发给 DeepSeek 的提示词文本一致（DS 实际收到的数据）
# 注意: 用户 profile（年龄性别）未存入测量记录，手机端重建时为'未知'
#       助手如需年龄性别做医学判断，需用户单独提供

[用户属性]

[全局指标]
采样率:500Hz 时长:30.7s 总点数:15330
R波检测:29个 平均心率:64bpm 范围:58-77bpm
R波位置(样本索引):180,331,790,1064,1419,1928,2126,2434,4481,4896,5431,6343,6775,8102,9090,9478,10485,10993,11477,11945,12437,12658,12885,13454,13690,13874,14222,14701,15139
RR间期序列(ms，[*]为偏离均值>20%的异常间期，多为早搏/误检):[302*] 918 [548*] [710*] 1018 [396*] [616*] 830 [1070*] [1824*] 864 [1976*] 776 [2014*] 1016 968 936 984 [442*] [454*] [1138*] [472*] [368*] [696*] 958 876
RR差值序列(ms):616,-370,162,308,-622,220,214,240,754,-960,1112,-1200,1238,-998,-48,-32,48,-542,12,684,-666,-104,328,262,-82
SDNN:74.3ms RMSSD:111.7ms pNN50:50.0%
QRS宽度(本地估测,ms):53±19
PR间期(本地估测,ms):149±58
QT间期(本地估测,ms):410 QTc(Bazett):423ms QTc(Fridericia):418ms
R波平均振幅:0.34mV
R波极性:负向(负向提示导联反接/位置异常)
T/R振幅比:1.11(正常0.1-0.5，<0.1低平，>0.5高尖)
ST段偏移(本地估测,mV):-0.037(正常±0.05，>0.1抬高，<-0.1压低)
信号质量:0.85 良好

[节律判别特征]
R波可靠性:可信
RR变异系数:0.081(轻度不齐)
Poincaré散点形态:鱼雷形(轻度不齐)
短-长RR配对数(早搏代偿):1个

[逐秒分段]
时段(s)  R波  振幅范围(mV)  峰峰值(mV)  最大斜率(mV/s)  RMS(mV)
0.0-1.0  2  -0.63~0.81  1.44  91.50  0.32
1.0-2.0  1  -1.82~1.67  3.49  117.00  0.97
2.0-3.0  2  -1.75~1.62  3.38  113.00  1.04
3.0-4.0  1  -0.50~0.34  0.85  93.00  0.13
4.0-5.0  2  -0.79~0.59  1.38  89.50  0.36  ← 短RR+代偿间隙(早搏可能)
5.0-6.0  0  -0.72~0.53  1.24  96.50  0.25  ← 代偿间隙(配合前秒短RR)
6.0-7.0  0  -0.39~0.28  0.68  99.50  0.13  ← 本秒无R波(心率<60或代偿间隙)
7.0-8.0  0  -0.51~0.25  0.77  78.00  0.13  ← 本秒无R波(心率<60或代偿间隙)
8.0-9.0  1  -0.72~0.46  1.18  87.50  0.19
9.0-10.0  1  -0.98~0.61  1.59  155.00  0.37
10.0-11.0  1  -0.83~0.77  1.60  97.00  0.39
11.0-12.0  0  -2.28~1.15  3.43  88.00  0.97  ← 本秒无R波(心率<60或代偿间隙)
12.0-13.0  1  -1.21~1.91  3.12  120.50  0.78
13.0-14.0  1  -0.66~0.83  1.49  99.50  0.38
14.0-15.0  0  -0.90~0.59  1.49  95.00  0.39  ← 本秒无R波(心率<60或代偿间隙)
15.0-16.0  0  -0.77~0.63  1.41  94.00  0.33  ← 本秒无R波(心率<60或代偿间隙)
16.0-17.0  1  -0.59~0.28  0.86  151.00  0.11
17.0-18.0  0  -0.61~0.40  1.01  103.00  0.15  ← 本秒无R波(心率<60或代偿间隙)
18.0-19.0  2  -0.53~0.32  0.85  89.00  0.13  ← 短RR+代偿间隙(早搏可能)
19.0-20.0  0  -0.59~0.34  0.93  90.00  0.12  ← 代偿间隙(配合前秒短RR)
20.0-21.0  1  -0.52~0.62  1.14  109.50  0.27
21.0-22.0  1  -0.69~0.37  1.06  98.50  0.15
22.0-23.0  1  -0.84~0.55  1.40  92.50  0.30
23.0-24.0  1  -0.71~0.52  1.24  104.00  0.21
24.0-25.0  1  -0.61~0.46  1.06  97.00  0.19
25.0-26.0  2  -0.76~0.68  1.43  103.50  0.29
26.0-27.0  1  -0.55~0.36  0.91  110.00  0.12
27.0-28.0  2  -0.49~0.51  1.01  106.50  0.24
28.0-29.0  1  -0.55~0.26  0.81  90.50  0.13
29.0-30.0  1  -0.52~0.33  0.85  107.00  0.12
逐秒RMS:0.323,0.968,1.044,0.134,0.361,0.252,0.126,0.130,0.189,0.373,0.391,0.974,0.778,0.378,0.393,0.330,0.115,0.151,0.128,0.115,0.266,0.148,0.297,0.207,0.195,0.286,0.124,0.245,0.131,0.124

[AI 解读]
# DeepSeek 返回的原始 JSON（未清洗，可能含 markdown 代码块包裹）
{
  "平均心率": 64,
  "心率范围": "58-72 bpm",
  "心率稳定性": "稳定",
  "心率置信度": "高",
  "SDNN_ms": 74.3,
  "RMSSD_ms": 111.7,
  "pNN50_pct": 50.0,
  "HRV解读": "HRV指标偏高,结合18岁年龄,属正常范围,反映副交感神经张力较高,但需注意pNN50显著升高可能与呼吸性窦性心律不齐有关。",
  "HRV置信度": "中",
  "节律判断": "窦性心律不齐,伴频发早搏（可能为房性或室性）",
  "RR间期规律性": "轻度不齐,变异系数0.081,但RR序列中存在多个异常间期和代偿间隙",
  "早搏提示": ["4.0-6.0s 短RR+代偿间隙(早搏可能)", "18.0-20.0s 短RR+代偿间隙(早搏可能)"],
  "节律置信度": "中",
  "PR间期_ms": 149,
  "PR判断": "正常范围(120-200ms)",
  "PR置信度": "低",
  "QRS宽度_ms": 53,
  "QRS判断": "偏窄,可能检测误差,正常范围参考80-120ms",
  "QRS置信度": "低",
  "QTc_ms": 423,
  "QTcFridericia_ms": 418,
  "QTc判断": "正常范围",
  "QTc置信度": "中",
  "间期数据来源": "本设备本地算法估测,误差约±15ms",
  "信号质量": "良好",
  "噪声段": ["3.0-4.0s 振幅偏低"],
  "异常提示": ["T/R振幅比1.11,异常升高,可能提示T波高尖或伪差；R波极性负向,提示导联反接或位置异常"],
  "综合解读": "该18岁男性静息心电图显示窦性心律不齐,平均心率64bpm,但RR序列中存在多个短RR间期及后续代偿间隙,提示频发早搏（可能为房性早搏或室性早搏）,需结合临床进一步评估。QTc间期正常,ST段无偏移,但T/R振幅比显著升高,R波极性负向,可能因导联位置或接触不良引起。HRV指标偏高,与青年期自主神经调节活跃相符。",
  "健康建议": ["建议就医复查标准12导联心电图,明确早搏性质及有无其他心肌缺血或电解质异常", "注意避免过度疲劳、咖啡因等诱因,记录症状与心电图关联", "若伴有心悸、胸闷等症状,及时就诊心内科"],
  "免责声明": "本报告基于腕表单导联ECG统计特征生成,间期为本地算法估测,仅供健康参考,不作为医疗诊断依据。如有不适请就医复查标准12导联心电图。"
}
