========== ECG 算法诊断包 ==========
测量时间: 2026-07-17 13:33:20
测量时间戳:1784266400686
采样率:500 Hz
数据点数:15460
时长:30.9 秒
分析方法:heartvoice

[原始 ECG 数据]
# 单位: mV×1000 整数（如 500 = 0.5mV，-1000 = -1.0mV）
# 采样率: 500 Hz，连续采样，无降采样无压缩
# 用途: 助手据此复现本地算法行为（基线漂移/噪声段/R波检测）
# 格式: 每行一个数值，行号=采样点索引（第1行=索引0，即 t=0.000s）
156597
156605
156650
156690
156803
156705
156719
156799
156797
156728
156648
156574
156605
156663
156647
156645
156800
156883
156777
156781
156772
156785
156768
156709
156728
156786
156780
156946
156983
156746
156621
156699
156773
156908
156901
156870
156974
156938
156709
156606
156637
156662
156778
156907
156974
156980
156920
156929
156875
156851
156754
156739
156800
156937
156927
156963
157095
157070
156999
156907
156831
156772
156828
156957
157057
156995
156952
156941
157080
157173
157003
157002
157052
157182
157345
157350
157288
157123
157119
157118
157003
157010
157027
156876
156862
156948
156960
156794
156566
156401
156378
156418
156505
156533
156656
156635
156774
156819
156802
156804
156830
156889
157056
157018
156999
156971
157143
157274
157247
157129
157041
157091
157161
157067
157024
157155
157205
157137
157160
157123
157011
157052
157096
157100
157160
157163
157138
157173
157107
157180
157051
157150
157150
157220
157159
157095
157132
157118
157242
157221
157178
157187
157139
157074
157100
157198
157296
157253
157258
157247
157151
157131
157159
157189
157176
157139
157254
157272
157190
157184
157193
157083
157113
157313
157231
157167
157288
157318
157301
157118
157063
157124
157178
157220
157166
157098
157198
157225
157225
157354
157345
157365
157359
157310
157295
157304
157388
157266
157395
157219
157152
157166
157145
157115
157179
157298
157358
157410
157402
157411
157333
157218
157187
157166
157328
157344
157349
157379
157382
157301
157238
157356
157480
157406
157483
157393
157415
157375
157306
157404
157429
157409
157431
157418
157345
157382
157460
157345
157268
157306
157355
157433
157463
157441
157454
157411
157390
157381
157322
157382
157353
157380
157497
157448
157392
157467
157481
157532
157571
157465
157417
157387
157379
157354
157475
157540
157501
157362
157407
157358
157340
157394
157499
157529
157423
157367
157488
157442
157459
157455
157260
157280
157266
157380
157439
157473
157522
157509
157518
157436
157380
157353
157385
157523
157440
157442
157532
157524
157494
157493
157366
157260
157324
157391
157535
157566
157608
157507
157399
157378
157433
157565
157616
157416
157423
157538
157595
157624
157543
157491
157486
157506
157482
157441
157530
157496
157545
157437
157478
157483
157420
157408
157528
157645
157708
157670
157661
157553
157539
157397
157411
157421
157616
157690
157676
157604
157656
157659
157587
157536
157504
157562
157653
157674
157752
157783
157596
157476
157483
157476
157590
157630
157641
157700
157748
157680
157745
157725
157696
157610
157518
157564
157655
157636
157531
157613
157749
157757
157587
157600
157568
157539
157571
157647
157700
157721
157778
157695
157749
157798
157780
157727
157759
157766
157723
157622
157743
157744
157784
157844
157701
157593
157650
157702
157808
157972
158009
157814
157723
157732
157697
157730
157826
157787
157762
157855
157962
158092
158247
158152
158032
158097
157971
157934
158033
157960
157986
158015
157955
157871
157644
157495
157420
157431
157477
157466
157373
157453
157507
157465
157304
157342
157450
157503
157750
157823
157919
157994
158079
157980
157928
157907
157788
157861
157907
157864
157850
157852
157896
157900
157836
157933
158074
158049
157965
157936
158093
157943
157939
157883
157882
158002
157929
157883
158009
157991
158094
158111
158059
158012
157955
157930
158034
157949
157848
157933
157929
158084
158108
158075
158005
158033
157918
157993
158079
158057
158133
158165
158191
158026
157889
157873
157970
158034
158114
158153
158221
158271
158227
158191
158030
158039
158097
157994
158041
158107
158125
158130
158127
158142
158103
158243
158120
158165
158192
158157
158198
158207
158237
158369
158303
158231
158287
158266
158173
158222
158363
158404
158379
158358
158211
158221
158224
158216
158308
158249
158183
158326
158253
158294
158282
158412
158406
158364
158324
158221
158261
158228
158347
158313
158204
158311
158338
158409
158367
158271
158252
158332
158519
158503
158265
158229
158192
158199
158209
158307
158362
158390
158434
158432
158476
158538
158400
158281
158260
158362
158504
158419
158329
158431
158435
158378
158439
158351
158322
158420
158496
158466
158422
158432
158307
158315
158349
158340
158375
158442
158609
158698
158645
158482
158373
158326
158279
158366
158411
158435
158587
158525
158545
158575
158491
158534
158486
158493
158580
158371
158516
158597
158591
158492
158393
158470
158618
158645
158540
158500
158495
158575
158554
158570
158623
158590
158612
158653
158550
158535
158590
158690
158689
158572
158488
158373
158453
158555
158403
158536
158665
158578
158550
158558
158418
158470
158544
158614
158635
158531
158390
158541
158667
158506
158424
158456
158549
158598
158604
158628
158712
158639
158491
158455
158643
158575
158443
158559
158637
158598
158579
158597
158695
158593
158539
158649
158736
158645
158606
158616
158635
158552
158415
158362
158444
158528
158625
158710
158822
158828
158724
158657
158561
158505
158435
158401
158463
158558
158575
158618
158693
158653
158667
158603
158616
158622
158584
158550
158474
158528
158587
158553
158516
158612
158596
158546
158501
158396
158561
158563
158632
158555
158412
158318
158290
158346
158416
158533
158516
158515
158489
158505
158508
158467
158381
158552
158628
158529
158446
158476
158521
158518
158511
158536
158542
158461
158558
158556
158396
158357
158324
158252
158181
158122
158016
157897
157720
157849
157833
157757
157817
157823
157798
157805
157907
158133
158179
158170
158155
158255
158264
158228
158206
158127
158173
158190
158295
158486
158392
158276
158329
158394
158370
158277
158200
158266
158164
158261
158361
158377
158436
158296
158207
158209
158222
158272
158193
158139
158211
158232
158161
158187
158281
158231
158195
158230
158221
158172
158163
158141
158164
158289
158197
158144
158152
158195
158264
158276
158190
158275
158272
158256
158157
158086
158072
158191
158250
158174
158073
158019
158035
158115
158123
158322
158252
158232
158149
158089
158116
158015
158057
158134
158072
158151
158146
158125
158158
158110
158033
158041
158098
158237
158181
158000
157883
157844
157861
158039
158151
158261
158311
158168
158097
158073
157938
157900
158000
158001
158129
158091
158119
158149
158183
158105
157990
158044
157978
157989
157930
157934
158022
157961
157953
158009
157909
158037
158035
158011
157861
157837
158035
157928
157871
158005
157971
157910
158001
157885
157926
157864
157901
157818
157990
157999
157882
157980
157884
157795
157820
157789
157885
157964
157994
157959
157766
157650
157700
157724
157741
157649
157764
157815
157828
157873
157732
157664
157810
157817
157757
157787
157890
157889
157891
157869
157791
157685
157633
157633
157686
157734
157854
157815
157775
157757
157796
157731
157643
157610
157544
157579
157655
157581
157577
157580
157597
157699
157675
157794
157676
157649
157676
157772
157760
157659
157504
157512
157445
157317
157464
157608
157665
157747
157847
157698
157597
157590
157454
157410
157449
157482
157584
157600
157558
157598
157555
157495
157563
157496
157577
157552
157583
157570
157461
157428
157504
157510
157495
157442
157479
157420
157497
157624
157647
157529
157515
157485
157432
157450
157529
157515
157475
157474
157520
157574
157383
157241
157380
157475
157418
157451
157473
157575
157472
157464
157482
157399
157285
157308
157477
157468
157404
157501
157371
157339
157400
157451
157405
157340
157356
157383
157351
157317
157306
157295
157260
157218
157225
157055
157159
157177
157145
157266
157381
157474
157300
157215
157220
157243
157268
157228
157282
157323
157235
157108
157100
157056
157117
157130
157095
157062
157176
157303
157250
157132
156864
156870
156887
156872
156940
157131
157021
157084
157070
157120
157210
157281
157030
156985
157102
157245
157404
157427
157334
157318
157257
157101
156857
156786
156736
156751
156822
156801
156717
156628
156478
156395
156345
156275
156332
156381
156594
156676
156606
156670
156573
156541
156677
156877
157082
156919
156875
156864
156934
156836
156829
156914
156786
156720
156798
156744
156730
156768
156808
156786
156668
156726
156709
156752
156842
156807
156775
156749
156811
156768
156775
156755
156848
156776
156747
156754
156824
156831
156877
156748
156626
156672
156778
156741
156844
156824
156937
156922
156787
156665
156593
156651
156591
156637
156735
156687
156660
156586
156803
156865
156763
156737
156585
156571
156513
156558
156704
156808
156813
156788
156671
156651
156706
156726
156671
156730
156798
156850
156921
156752
156678
156663
156549
156608
156727
156606
156660
156727
156810
156835
156799
156749
156647
156618
156647
156572
156635
156588
156638
156689
156677
156624
156628
156627
156620
156710
156862
156729
156583
156562
156479
156510
156519
156543
156488
156536
156687
156854
156871
156642
156529
156403
156529
156532
156436
156365
156351
156384
156480
156364
156552
156547
156434
156335
156371
156388
156388
156457
156441
156447
156378
156318
156256
156252
156300
156492
156508
156418
156452
156338
156289
156287
156301
156271
156390
156264
156305
156485
156503
156478
156445
156347
156314
156253
156225
156296
156303
156271
156285
156310
156335
156404
156439
156395
156277
156165
156189
156233
156225
156331
156317
156384
156321
156313
156370
156388
156437
156395
156241
156205
156131
156124
156276
156436
156328
156229
156330
156384
156432
156320
156294
156327
156266
156040
155984
156031
156241
156332
156454
156320
156176
156203
156240
156284
156211
156122
156150
156184
156296
156327
156314
156312
156266
156263
156179
156181
156203
156165
156137
156144
156152
156250
156269
156128
155979
156065
156287
156390
156404
156295
156178
156157
156053
156031
156083
156047
155950
156041
156178
156290
156384
156260
156171
156182
156187
156008
155983
156054
156269
156230
156087
156114
156130
156071
156021
156075
156211
156285
156165
156172
156128
156158
156143
156014
156005
155990
156092
156218
156172
156128
156096
156079
156065
156016
156121
156128
156175
156117
156052
155952
155976
155970
155965
156006
156099
156117
156047
156158
156167
156024
155957
156050
155988
156003
156021
155855
155836
155864
155994
155987
155937
155948
155936
155983
156011
155993
156011
156069
156001
155992
155916
155965
156131
156231
156247
156279
156203
156088
156067
156040
155911
155828
155906
155851
155695
155570
155507
155403
155354
155318
155340
155526
155472
155386
155490
155565
155630
155649
155648
155584
155558
155623
155832
155927
155881
155828
155891
155946
155860
155784
155766
155805
155876
155891
155743
155837
155897
155820
155770
155710
155623
155680
155680
155771
155861
155751
155734
155662
155610
155675
155683
155896
156064
155923
155899
155849
155864
155890
155799
155700
155696
155850
155838
155902
155875
155783
155834
155733
155749
155774
155789
155697
155725
155644
155681
155723
155752
155699
155780
155804
155823
155771
155654
155662
155716
155814
155953
155887
155661
155689
155844
155997
155993
155890
155840
155842
155950
155939
155885
155825
155717
155726
155864
155919
155976
155931
155913
155922
155818
155714
155656
155759
155999
155844
155611
155663
155688
155663
155520
155553
155573
155702
155764
155833
155863
155770
155799
155701
155762
155779
155752
155822
155687
155551
155620
155708
155704
155663
155628
155731
155849
155754
155683
155625
155502
155513
155658
155621
155505
155521
155630
155603
155502
155510
155549
155612
155582
155604
155551
155514
155475
155503
155419
155433
155494
155533
155518
155482
155495
155481
155407
155273
155336
155342
155201
155156
155209
155422
155463
155352
155334
155264
155317
155221
155158
155166
155245
155168
154945
154831
154930
155068
155260
155320
155222
155242
155250
155182
154894
154859
154982
155029
155051
155042
155131
154911
154886
154969
154931
154796
154890
155052
155034
155021
155039
155010
154918
154946
154992
154977
154909
154854
154911
154922
154994
154948
154973
155018
154976
154818
154682
154710
154689
154749
154779
154750
154877
154952
155011
155007
154865
154841
154786
154874
154856
154765
154816
154775
154785
154832
154764
154788
154887
154761
154776
154821
154786
154786
154694
154689
154704
154840
154768
154693
154807
154761
154686
154691
154733
154523
154609
154793
154889
154885
154882
154686
154583
154463
154529
154618
154649
154746
154848
154806
154765
154853
154740
154605
154606
154574
154583
154721
154738
154783
154713
154601
154541
154597
154564
154512
154551
154638
154681
154737
154684
154680
154732
154783
154757
154616
154485
154551
154659
154698
154671
154628
154600
154494
154556
154631
154568
154557
154554
154790
154851
154731
154712
154766
154719
154661
154672
154714
154775
154785
154832
154832
154852
154885
154895
154810
154698
154590
154460
154407
154472
154287
154245
154266
154280
154345
154165
154085
154026
154136
154151
154111
154166
154326
154327
154346
154414
154435
154479
154350
154488
154729
154731
154680
154567
154502
154404
154511
154519
154520
154579
154523
154499
154524
154456
154377
154415
154472
154443
154476
154530
154580
154605
154591
154519
154550
154422
154418
154440
154550
154560
154588
154639
154670
154566
154400
154348
154321
154302
154368
154443
154472
154427
154485
154497
154490
154402
154466
154541
154499
154375
154344
154466
154568
154581
154473
154360
154438
154406
154395
154456
154404
154512
154790
154646
154381
154432
154340
154373
154395
154349
154380
154365
154333
154451
154552
154477
154446
154447
154547
154534
154529
154590
154613
154451
154392
154308
154406
154440
154423
154515
154543
154396
154301
154301
154320
154375
154458
154429
154466
154556
154547
154561
154529
154389
154369
154345
154344
154248
154242
154417
154417
154433
154444
154354
154344
154338
154409
154456
154464
154456
154385
154382
154367
154338
154317
154166
154184
154215
154197
154285
154328
154366
154476
154376
154441
154355
154265
154186
154117
154231
154266
154235
154161
154190
154314
154332
154390
154312
154458
154488
154310
154305
154279
154316
154344
154272
154091
154049
154131
154216
154296
154302
154262
154315
154251
154138
154316
154283
154073
154102
154206
154266
154382
154386
154222
154138
154139
154051
154090
154236
154363
154462
154296
154370
154189
154099
154045
154032
154059
154154
154248
154199
154165
154184
154129
154094
154108
154120
154213
154187
154165
154048
154073
154102
154211
154263
154300
154189
154149
154074
154134
154053
154074
154063
153973
153925
154035
154064
154188
154297
154261
154071
153830
153987
154097
154013
154045
154136
154055
153940
153980
154091
154153
154117
154121
154112
154156
154181
154085
154103
154019
154030
154096
154088
154162
154015
154054
154145
154108
154186
154110
154171
154213
154245
153941
153744
153775
153810
153941
154104
154224
154156
154006
154025
154064
154018
154107
154107
154035
154006
153929
154010
154071
154076
154153
154055
153987
153916
153950
154057
154088
154072
154009
153975
154003
153931
153913
153877
154062
154020
153895
153855
153848
153907
153867
153836
153922
153957
153984
154003
154005
154073
153990
154019
153945
153853
153854
154015
154014
153956
153903
153911
153816
153884
153918
153932
154003
154058
154051
154098
153923
153834
154021
154085
154079
153907
153858
153931
153983
154067
153887
153798
153812
153822
153790
153569
153350
153270
153206
153257
153250
153335
153330
153342
153428
153488
153521
153522
153611
153631
153643
153683
153733
153728
153586
153509
153620
153759
153736
153672
153758
153793
153746
153671
153668
153627
153649
153656
153610
153705
153817
153745
153603
153640
153661
153587
153598
153687
153651
153690
153686
153791
153710
153719
153664
153503
153606
153718
153665
153667
153633
153708
153772
153843
153794
153602
153583
153594
153661
153741
153715
153780
153797
153872
153801
153688
153635
153568
153700
153733
153761
153744
153754
153722
153694
153621
153558
153494
153583
153653
153638
153687
153661
153619
153615
153638
153630
153565
153628
153661
153639
153735
153777
153712
153613
153497
153578
153703
153731
153762
153613
153544
153522
153549
153617
153534
153523
153553
153446
153631
153681
153676
153660
153536
153388
153317
153485
153571
153550
153563
153523
153549
153555
153561
153599
153523
153517
153535
153419
153584
153566
153634
153561
153395
153388
153437
153517
153570
153454
153515
153488
153535
153524
153486
153401
153348
153346
153343
153453
153393
153293
153465
153649
153568
153505
153497
153450
153484
153512
153416
153471
153510
153462
153408
153529
153588
153484
153442
153398
153354
153324
153411
153431
153536
153544
153467
153295
153293
153253
153341
153472
153495
153505
153529
153512
153432
153424
153538
153536
153497
153512
153524
153547
153388
153384
153312
153330
153461
153513
153570
153569
153549
153601
153564
153482
153507
153521
153399
153406
153414
153308
153441
153391
153404
153368
153293
153291
153428
153555
153482
153496
153481
153434
153435
153363
153311
153284
153313
153379
153495
153435
153455
153538
153619
153545
153486
153317
153344
153350
153412
153320
153308
153419
153548
153663
153616
153477
153380
153277
153242
153298
153437
153472
153462
153332
153349
153349
153407
153428
153399
153328
153420
153488
153535
153566
153467
153519
153479
153407
153373
153353
153482
153656
153541
153360
153351
153333
153399
153437
153531
153486
153476
153458
153435
153448
153450
153503
153549
153561
153498
153572
153631
153514
153439
153445
153451
153396
153355
153455
153531
153576
153553
153406
153461
153524
153558
153477
153410
153478
153641
153593
153559
153603
153587
153560
153415
153338
153336
153325
153438
153414
153480
153554
153571
153590
153395
153410
153471
153387
153411
153444
153532
153664
153691
153708
153581
153544
153525
153658
153815
153795
153776
153753
153887
153804
153709
153652
153529
153544
153476
153449
153359
153255
153146
153154
153044
153043
153017
153030
153064
153081
153185
153195
153145
153146
153146
153257
153456
153611
153572
153539
153510
153441
153464
153475
153350
153526
153601
153610
153571
153434
153460
153512
153702
153800
153678
153515
153560
153608
153560
153501
153577
153666
153698
153672
153510
153542
153606
153514
153508
153553
153708
153593
153559
153640
153543
153435
153380
153412
153493
153554
153724
153705
153702
153610
153590
153650
153613
153641
153558
153540
153672
153739
153626
153549
153532
153672
153737
153566
153504
153593
153579
153479
153508
153605
153587
153671
153635
153597
153609
153642
153637
153726
153711
153748
153727
153699
153501
153390
153531
153706
153713
153688
153674
153822
153742
153471
153531
153613
153645
153577
153627
153696
153717
153692
153625
153603
153597
153628
153553
153621
153684
153755
153793
153714
153556
153594
153668
153694
153615
153580
153680
153723
153585
153597
153609
153648
153608
153577
153540
153556
153541
153544
153677
153774
153739
153655
153636
153587
153576
153628
153575
153630
153576
153542
153511
153551
153550
153659
153638
153593
153577
153603
153648
153709
153635
153739
153682
153597
153538
153413
153512
153512
153528
153413
153288
153499
153646
153713
153655
153624
153691
153709
153710
153783
153544
153438
153564
153563
153538
153503
153556
153662
153586
153546
153628
153694
153633
153491
153599
153602
153544
153602
153712
153578
153476
153348
153264
153434
153654
153664
153519
153528
153558
153617
153590
153503
153471
153433
153378
153456
153392
153399
153480
153516
153527
153533
153522
153413
153448
153455
153408
153375
153366
153396
153349
153508
153602
153706
153467
153372
153442
153359
153289
153302
153266
153454
153376
153327
153317
153402
153393
153436
153467
153412
153350
153373
153359
153294
153392
153426
153473
153401
153347
153349
153360
153307
153431
153404
153404
153387
153432
153404
153378
153374
153310
153325
153249
153207
153256
153322
153433
153424
153302
153335
153324
153303
153297
153330
153354
153305
153359
153361
153485
153408
153347
153320
153293
153337
153431
153395
153373
153383
153379
153320
153152
153133
153149
153205
153257
153257
153407
153365
153239
153123
153126
153199
153223
153312
153408
153290
153280
153231
153082
153104
153196
153218
153158
153120
153119
153087
153186
153346
153303
153194
153088
152968
153022
153210
153083
153066
153209
153227
153257
153093
153145
153088
153053
153039
153072
153150
153232
153346
153276
153263
153223
153123
153181
153182
153084
152948
152906
152897
152727
152613
152472
152481
152467
152598
152683
152652
152638
152615
152678
152795
152712
152552
152646
152812
152902
153021
152987
152934
153002
153088
152919
152893
152844
152784
152887
152822
152960
152965
152909
152915
152876
152863
152955
152893
152843
152807
152891
153004
153047
152918
152862
152872
152843
152824
152780
152790
152877
152891
152845
152853
152841
152847
152750
152700
152679
152680
152717
152850
152894
152855
152799
152729
152588
152460
152576
152574
152684
152712
152674
152672
152695
152652
152634
152605
152499
152542
152751
152835
152808
152900
152814
152859
152665
152569
152521
152540
152636
152608
152675
152692
152621
152522
152364
152388
152459
152500
152495
152629
152724
152737
152640
152485
152375
152446
152506
152485
152504
152470
152399
152537
152529
152572
152494
152460
152298
152177
152184
152313
152515
152694
152604
152486
152342
152197
152300
152260
152515
152662
152641
152495
152378
152375
152412
152359
152210
152233
152444
152448
152355
152311
152239
152236
152164
152122
152194
152220
152236
152177
152116
152218
152111
152075
152029
152077
152045
152156
152262
152160
152154
152066
151978
152148
152332
152198
152119
152062
152042
152144
152230
152104
151971
151986
152020
152061
151988
151848
151945
152069
152069
152142
152125
152138
152092
151872
152006
151951
152034
152007
151916
151894
151890
151915
152012
152074
151969
152016
152104
152048
152040
151978
151948
152039
151994
151963
151946
151956
151928
151834
151863
151996
151866
151798
151922
151935
151924
151977
151942
151981
151864
151883
151973
151955
151904
151761
151661
151657
151769
151915
152049
152072
151980
151802
151740
151815
151843
151726
151805
151762
151815
151855
151800
151785
151843
151915
151687
151595
151657
151725
151734
151728
151612
151642
151624
151693
151698
151676
151692
151744
151668
151564
151476
151479
151551
151587
151607
151579
151550
151608
151631
151720
151607
151615
151588
151468
151493
151545
151532
151577
151568
151522
151719
151847
151649
151560
151595
151604
151580
151559
151468
151442
151364
151400
151457
151356
151372
151389
151467
151526
151533
151548
151549
151622
151491
151403
151464
151523
151505
151541
151668
151540
151325
151299
151327
151310
151312
151375
151385
151514
151514
151335
151322
151433
151306
151237
151261
151282
151346
151528
151381
151320
151344
151355
151381
151401
151497
151483
151479
151588
151562
151522
151336
151367
151106
150989
150901
150870
150835
150894
150933
150805
150745
150698
150664
150654
150719
150720
150861
150794
150769
150922
150916
150873
150882
150922
151013
151046
151076
150997
151089
151156
151143
151165
151091
150984
150887
150992
151206
151165
151125
151191
151266
151013
150805
150692
150879
151000
151069
151019
151044
151057
150975
150945
150982
150939
150942
150814
150968
151124
151213
151053
150918
150936
151015
150939
150876
150881
150968
150879
151001
150944
150956
151051
150986
150810
150644
150711
150808
150844
150833
150831
150775
150865
150923
150906
150839
150891
150881
150831
150885
150944
150937
150895
150870
150896
150788
150749
150700
150741
150709
150756
150837
150866
150773
150733
150747
150833
150812
150761
150601
150675
150712
150749
150750
150713
150702
150684
150733
150723
150709
150681
150780
150812
150833
150708
150546
150587
150686
150704
150732
150624
150589
150562
150490
150504
150670
150778
150771
150697
150787
150719
150500
150482
150462
150582
150721
150584
150529
150536
150548
150485
150467
150527
150676
150650
150647
150507
150463
150593
150635
150486
150329
150304
150272
150361
150381
150550
150625
150556
150614
150571
150509
150426
150414
150432
150639
150730
150742
150498
150478
150481
150365
150336
150360
150361
150374
150330
150437
150525
150348
150226
150385
150498
150512
150400
150356
150273
150283
150363
150388
150400
150385
150447
150477
150477
150240
150225
150400
150538
150568
150456
150353
150371
150325
150351
150378
150344
150392
150462
150498
150389
150344
150321
150193
150266
150250
150351
150491
150357
150203
150265
150205
150264
150285
150321
150372
150265
150271
150359
150269
150275
150276
150195
150265
150240
150354
150332
150278
150263
150384
150471
150391
150374
150321
150170
150160
150057
150171
150194
150311
150315
150295
150252
150219
150321
150321
150238
150166
150310
150231
150235
150194
150278
150357
150256
150215
150177
150217
150153
150133
150210
150240
150226
150163
150246
150235
150312
150396
150398
150353
150402
150301
150265
150115
150189
150231
150233
150314
150279
150208
150302
150277
150355
150304
150180
150201
150292
150391
150405
150425
150300
150112
150106
150172
150037
150013
150007
150151
150374
150474
150453
150266
150065
150096
150149
150271
150248
150267
150300
150235
150101
150074
150230
150193
150257
150136
150144
150147
150244
150344
150386
150236
150276
150232
150131
150225
150404
150445
150544
150567
150600
150492
150178
150152
150071
149962
150017
150178
150100
150032
149872
149680
149576
149506
149491
149589
149638
149634
149872
150058
149897
149807
149793
149827
149923
150071
150059
150061
150126
150151
150144
150117
150117
150081
150093
150171
150012
149965
149983
149991
150099
150167
150147
150206
150200
150246
150176
150107
150050
150133
150192
150115
150096
150038
149913
149958
149961
150009
150089
150101
150237
150260
150253
150286
150171
150129
150134
150117
150141
150114
150119
150049
150036
150060
150074
150066
150075
150083
150132
150086
150287
150227
150127
149925
150015
150079
150137
150045
149990
150128
150149
150066
150261
150020
149974
150114
150140
150106
150136
150246
150358
150346
150281
150217
150092
150090
150056
150077
150203
150244
150231
150026
150100
150110
150023
150007
150050
150152
149999
150037
150133
150132
150273
150190
150029
150122
150116
150046
150008
149985
149983
150037
150160
150099
150125
150104
150042
150046
150027
150065
150104
150012
150067
150021
149891
149909
149867
149966
150083
150061
150007
149881
149926
150096
150091
149928
149921
149879
149800
149813
149926
149954
149902
149896
149986
149842
149803
149865
149990
149947
149966
149956
149923
149996
150048
149895
149817
149936
149986
149985
150057
150019
149909
149962
149921
149769
149815
149986
149949
149993
149949
149769
149831
149926
149882
149876
149815
149832
149831
149773
149926
149927
149974
149947
149785
149828
150009
150047
149970
149899
149940
149958
150002
149996
149904
149777
149799
149837
149763
149896
150071
150029
150087
150029
149889
149868
149852
149726
149754
149882
149922
149914
149877
149828
149786
149820
149883
149935
149917
149910
150019
149970
149898
149779
149698
149804
149833
149767
149773
149785
149731
149834
149974
150073
149885
149735
149757
149770
149826
149932
149869
149860
149824
149729
149679
149697
149798
149873
149929
149947
149911
149881
149844
149692
149787
149736
149873
149867
149809
149743
149778
149784
149866
149856
149804
149753
149742
149685
149740
149752
149770
149855
149934
149841
149801
149696
149710
149676
149753
149791
149844
149739
149772
149789
149695
149652
149608
149729
149758
149868
149856
149756
149803
149761
149643
149656
149725
149838
149895
149852
149781
149611
149572
149632
149687
149576
149546
149626
149649
149658
149698
149546
149542
149486
149466
149456
149545
149628
149623
149670
149683
149587
149631
149653
149627
149692
149694
149687
149781
149851
149982
149900
149735
149516
149370
149335
149151
149143
149131
149168
149166
149025
148933
148910
148839
148997
148914
148880
148963
149085
149198
149085
149185
149317
149368
149435
149442
149487
149454
149509
149494
149421
149502
149390
149398
149345
149311
149378
149376
149381
149457
149365
149399
149496
149411
149366
149323
149362
149329
149374
149470
149391
149306
149213
149220
149303
149240
149364
149422
149575
149525
149425
149356
149294
149416
149415
149392
149311
149359
149422
149485
149358
149373
149397
149317
149217
149259
149300
149345
149321
149454
149405
149196
149221
149283
149292
149236
149150
149214
149260
149263
149295
149377
149325
149234
149131
149257
149466
149337
149245
149299
149315
149340
149271
149273
149204
149241
149207
149312
149388
149348
149205
149235
149181
149199
149282
149259
149282
149278
149264
149349
149332
149315
149273
149246
149215
149183
149267
149294
149443
149394
149246
149178
149106
149120
149093
149155
149098
149157
149100
149076
149234
149370
149435
149290
149066
148944
149039
149108
149135
149169
149191
149246
149250
149219
149152
149155
149213
149198
149242
149275
149160
149017
149145
149226
149180
149149
149201
149286
149445
149273
149077
149155
149117
149138
149115
149047
149057
149133
149137
149181
149148
149122
149132
149105
149075
149173
149282
149150
149178
149219
149197
149197
149146
149152
149084
149114
149325
149423
149331
149278
149266
149299
149179
149137
149160
149112
149179
149121
149302
149362
149168
149029
149111
149105
149079
149176
149183
149160
149216
149237
149243
149301
149340
149180
149011
148957
149058
149179
149218
149305
149389
149167
149166
149227
149246
149177
149111
149195
149217
149204
149176
149141
149144
149151
149151
149089
149045
149098
149168
149283
149313
149284
149309
149260
149224
149204
149213
149122
149183
149240
149138
149092
149145
149119
149129
149115
149166
149339
149311
149314
149310
149236
149144
149089
149044
149022
149067
149159
149171
149183
149248
149344
149403
149370
149167
149044
149055
149109
149288
149344
149353
149418
149352
149228
149314
149317
149261
149170
149250
149279
149228
149309
149394
149251
149070
149162
149204
149191
149261
149415
149333
149232
149196
149148
149198
149204
149200
149176
149253
149299
149329
149352
149224
149220
149150
149229
149217
149229
149149
149207
149198
149280
149346
149240
149132
149131
149160
149201
149253
149392
149566
149399
149268
149226
149195
149074
149242
149329
149471
149533
149602
149472
149427
149309
149282
149284
149323
149182
149216
149163
149049
148955
148812
148781
148674
148702
148744
148658
148784
148872
148863
148940
149031
149036
149058
148995
149098
149201
149151
149198
149188
149233
149276
149309
149225
149183
149211
149286
149278
149284
149368
149348
149306
149414
149282
149277
149290
149285
149250
149317
149369
149361
149334
149304
149217
149207
149292
149307
149320
149424
149437
149430
149376
149330
149217
149217
149245
149289
149338
149381
149412
149351
149293
149368
149406
149314
149313
149365
149437
149350
149353
149419
149389
149292
149191
149191
149235
149327
149311
149295
149415
149452
149417
149473
149451
149259
149269
149440
149478
149502
149482
149480
149407
149390
149382
149322
149326
149331
149323
149394
149430
149527
149617
149554
149408
149217
149320
149261
149222
149250
149370
149467
149410
149314
149249
149175
149263
149236
149390
149518
149498
149397
149363
149181
149222
149296
149419
149356
149327
149314
149317
149399
149382
149391
149383
149377
149333
149252
149331
149422
149384
149364
149337
149314
149298
149186
149274
149324
149464
149323
149162
149203
149233
149330
149298
149190
149245
149378
149473
149420
149353
149300
149349
149327
149316
149251
149162
149263
149399
149430
149408
149362
149316
149364
149331
149320
149286
149229
149263
149279
149350
149317
149431
149495
149363
149325
149267
149210
149181
149269
149365
149535
149589
149498
149365
149227
149234
149230
149364
149447
149475
149425
149373
149365
149320
149224
149357
149494
149580
149479
149370
149401
149450
149439
149322
149296
149345
149279
149394
149362
149359
149296
149329
149392
149298
149352
149418
149406
149343
149356
149352
149358
149367
149446
149327
149301
149393
149416
149418
149400
149496
149455
149355
149402
149389
149291
149232
149282
149288
149336
149344
149387
149446
149434
149403
149266
149267
149308
149399
149471
149465
149497
149438
149288
149275
149292
149438
149725
149599
149506
149496
149462
149426
149438
149488
149400
149390
149378
149229
149422
149580
149631
149552
149529
149561
149499
149513
149551
149510
149502
149498
149446
149434
149388
149458
149489
149492
149540
149447
149548
149568
149463
149404
149510
149566
149482
149383
149505
149554
149563
149593
149600
149614
149625
149606
149379
149402
149469
149586
149616
149578
149657
149662
149599
149447
149449
149466
149471
149653
149748
149708
149790
149809
149735
149685
149549
149614
149714
149692
149614
149793
149966
149813
149563
149423
149315
149270
149201
149243
149189
149018
149051
149011
149063
149106
149104
149089
149200
149253
149375
149520
149420
149389
149401
149507
149508
149569
149587
149578
149622
149591
149625
149631
149603
149574
149542
149591
149629
149720
149674
149738
149631
149591
149576
149520
149531
149417
149605
149725
149851
149710
149638
149564
149588
149634
149631
149658
149694
149674
149770
149772
149726
149710
149700
149663
149544
149548
149636
149862
149829
149784
149722
149702
149617
149625
149546
149694
149858
149819
149770
149708
149710
149725
149784
149809
149787
149710
149691
149609
149780
149801
149889
149879
149857
149742
149682
149802
149881
149934
149812
149794
149834
149887
149906
149809
149742
149919
150034
149868
149926
149963
149875
149865
149849
149842
149796
149803
149818
149842
149887
149856
149864
149803
149845
149874
149803
149786
149723
149809
149911
149865
149837
149917
149935
149956
149910
149791
149736
149677
149690
149619
149604
149713
149813
149801
149799
149711
149711
149747
149788
149914
149872
149792
149735
149690
149673
149593
149486
149621
149702
149776
149844
149782
149730
149777
149756
149667
149770
149671
149637
149562
149659
149622
149603
149729
149771
149831
149710
149578
149596
149613
149682
149624
149591
149611
149574
149583
149642
149712
149913
149810
149648
149653
149689
149673
149708
149729
149747
149670
149675
149684
149745
149816
149880
149826
149871
149681
149657
149568
149582
149692
149847
149855
149756
149701
149696
149778
149785
149737
149745
149552
149706
149767
149764
149644
149687
149634
149625
149699
149752
149740
149835
149778
149713
149705
149674
149764
149812
149775
149775
149749
149901
149823
149745
149816
149827
149831
149855
149734
149706
149748
149775
149740
149670
149670
149763
149721
149750
149682
149665
149708
149813
149882
149930
149838
149813
149738
149678
149742
149815
149825
149926
149825
149679
149719
149765
149827
149843
149791
149850
149869
149881
149954
149916
149818
149818
149879
149832
149934
149967
149949
149861
149786
149782
149855
149890
149803
149906
149940
149918
149843
149797
149901
150029
149973
149774
149794
149879
149861
149858
149958
150061
150009
149929
149974
149926
149966
149891
149760
149837
149983
149980
149922
149884
149923
149871
149917
149965
150018
150114
150078
149963
149866
149905
149873
149908
149901
149819
149834
149878
149880
149860
150050
150054
149928
149803
149808
149949
150116
150145
150128
149969
150055
150132
150057
149900
149980
150037
150103
150013
149864
149909
149896
149760
149627
149642
149579
149398
149371
149446
149514
149533
149448
149321
149355
149398
149488
149620
149621
149720
149706
149792
149778
149826
149803
149745
149736
149780
149835
149776
149706
149728
149754
149801
149814
149798
149725
149638
149777
149828
149844
149849
149815
149856
149880
149609
149701
149800
149833
149739
149703
149801
149778
149693
149716
149675
149774
149807
149725
149676
149789
149686
149737
149715
149808
149734
149685
149707
149767
149789
149713
149745
149780
149736
149779
149781
149622
149670
149812
149737
149723
149873
149853
149739
149672
149574
149552
149536
149692
149775
149740
149794
149868
149792
149764
149665
149578
149659
149939
149953
149813
149828
149767
149757
149765
149583
149597
149647
149696
149670
149695
149733
149759
149787
149907
149865
149775
149633
149652
149644
149637
149654
149756
149745
149753
149710
149663
149627
149555
149599
149763
149851
149799
149826
149751
149667
149612
149662
149587
149686
149779
149708
149670
149622
149679
149659
149611
149443
149441
149594
149609
149660
149784
149723
149677
149623
149548
149562
149500
149570
149593
149674
149716
149657
149742
149699
149736
149696
149732
149725
149692
149737
149800
149731
149615
149591
149566
149516
149509
149620
149710
149757
149680
149616
149589
149539
149683
149653
149740
149763
149760
149799
149787
149740
149673
149481
149549
149630
149694
149832
149753
149682
149861
149805
149805
149766
149764
149634
149714
149787
149805
149873
149748
149687
149665
149675
149644
149667
149849
149746
149780
149786
149768
149693
149711
149702
149710
149737
149832
149825
149813
149824
149757
149820
149796
149673
149658
149700
149835
149850
149792
149741
149810
149764
149663
149702
149799
149597
149674
149763
149666
149689
149696
149811
149812
149772
149707
149702
149716
149786
149855
149826
149730
149765
149904
149860
149709
149703
149686
149655
149609
149664
149711
149851
149815
149791
149827
149858
149738
149654
149694
149673
149729
149770
149728
149741
149784
149764
149599
149555
149717
149806
149827
149871
149808
149728
149709
149765
149727
149652
149637
149706
149840
149867
149773
149703
149822
149655
149593
149552
149573
149701
149684
149748
149754
149729
149753
149652
149583
149653
149748
149612
149582
149650
149681
149670
149620
149580
149521
149461
149641
149678
149726
149687
149629
149549
149514
149546
149516
149557
149685
149799
149849
149747
149688
149685
149668
149715
149896
150033
149947
149687
149576
149637
149729
149648
149442
149348
149291
149283
149199
149312
149385
149301
149329
149176
149097
149089
149049
149114
149111
149288
149482
149599
149538
149439
149478
149555
149492
149540
149593
149736
149786
149595
149611
149577
149526
149657
149625
149582
149565
149589
149653
149634
149617
149556
149574
149753
149701
149599
149656
149698
149683
149620
149603
149548
149571
149627
149661
149753
149614
149726
149770
149708
149600
149550
149531
149601
149612
149617
149585
149646
149692
149658
149749
149657
149713
149726
149673
149719
149723
149719
149834
149724
149669
149706
149708
149678
149721
149776
149757
149836
149793
149851
149790
149752
149750
149702
149790
149845
149778
149853
149822
149790
149842
149749
149681
149716
149677
149694
149609
149720
149879
149916
149847
149712
149725
149777
149571
149572
149709
149861
149980
150009
149978
149885
149858
149804
149849
149809
149675
149707
149725
149816
149844
149829
149751
149796
149742
149824
149931
149769
149846
149867
149810
149733
149721
149574
149567
149609
149694
149767
149786
149834
149777
149623
149528
149571
149677
149684
149657
149776
149822
149800
149720
149670
149806
149848
149656
149621
149604
149770
149783
149809
149876
149837
149806
149710
149609
149626
149628
149679
149655
149728
149757
149761
149823
149737
149600
149687
149654
149712
149809
149743
149627
149639
149653
149540
149468
149698
149750
149795
149776
149745
149690
149549
149570
149607
149793
149742
149656
149629
149588
149685
149675
149657
149703
149737
149586
149417
149367
149590
149741
149824
149794
149655
149542
149388
149356
149460
149370
149366
149545
149692
149595
149478
149393
149413
149502
149533
149539
149531
149506
149460
149554
149493
149355
149388
149259
149295
149424
149549
149599
149545
149557
149495
149383
149322
149333
149421
149405
149453
149334
149303
149293
149295
149323
149275
149350
149323
149304
149578
149636
149463
149347
149280
149200
149189
149134
149299
149244
149366
149474
149456
149286
149307
149381
149326
149331
149337
149274
149352
149472
149415
149491
149487
149432
149417
149338
149383
149435
149437
149457
149498
149468
149294
149323
149405
149452
149445
149336
149318
149344
149387
149375
149328
149358
149454
149391
149323
149241
149286
149320
149403
149332
149185
149123
149246
149261
149265
149182
149324
149454
149452
149294
149123
149145
149257
149185
149277
149327
149248
149282
149391
149402
149456
149411
149372
149255
149261
149306
149383
149522
149468
149290
149230
149133
149120
149055
148944
148913
149007
148966
148783
148698
148657
148646
148605
148597
148673
148642
148705
148839
148942
148962
148986
148976
148906
148870
149034
148893
149039
149190
149220
149185
149061
148906
148824
148859
148859
148872
148990
149137
149147
149085
148940
148975
148992
149021
149115
149187
149052
149115
149143
149050
149051
149014
149040
148943
148969
148999
148956
149001
149022
148972
149015
149110
149089
148985
148968
148924
148959
149133
149146
149073
149095
148985
148888
148777
148820
148956
148995
148963
148958
148977
148929
148998
149056
149068
149053
148995
148990
149008
149173
149089
149112
149061
148931
148954
148995
148954
149002
149162
149310
149304
149214
149161
149027
148921
148945
148939
149018
149084
149139
149093
149099
149022
148963
149026
149070
149042
149028
149054
149016
148898
148883
148998
149164
149163
149057
149106
149084
149061
149208
149320
149114
148909
148862
148977
148982
148943
148969
149074
149105
149208
149076
148963
148843
148800
148827
148939
149075
149195
149340
149295
149026
148947
149015
148869
148847
148792
148891
149090
149119
149051
149076
149033
148999
148999
149105
149085
149134
149111
149153
149064
148972
148953
148967
148950
148876
148873
148953
149093
149199
149179
149156
148946
148921
148993
149077
148966
148959
148953
148991
148989
149024
149018
149027
149142
149128
149048
149148
149150
149022
149081
149159
149204
149137
149040
149019
148923
148977
149130
149167
149082
149143
149110
149088
149116
149069
149022
149147
149102
149128
149119
149113
149116
149083
149010
148969
148940
149128
149230
149142
149087
149106
149187
149288
149144
148989
148805
148821
149069
149092
149064
149244
149322
149145
149066
149117
149123
149105
149064
149036
149101
149092
149160
149178
149116
149151
149110
148999
149040
149057
149069
149098
149097
149041
149005
149024
149053
149133
149158
149047
149024
148969
149034
149119
149137
149150
149164
149213
149143
149148
149226
149242
149327
149104
148967
149033
149056
149082
149186
149211
149162
148996
148913
148965
149022
148936
148990
149124
149252
149205
149133
149125
149050
149014
149018
149102
149075
149130
149240
149217
149224
149194
149357
149381
149231
149163
149107
149145
149222
149362
149271
149082
149121
149048
149021
149041
148965
149137
149211
149276
149347
149220
149076
149063
148937
149071
149128
149081
149087
149209
149246
149134
149109
149041
149034
149097
149068
149166
149304
149345
149303
149209
149184
148949
148983
149084
149117
149197
149333
149368
149313
149203
149323
149349
149353
149298
149165
149254
149316
149219
149102
149033
149014
148934
148985
148923
148761
148819
148785
148801
148824
148755
148722
148647
148606
148657
148731
148815
148944
148995
148955
148999
149062
149019
149010
149041
149094
149129
149084
149125
149205
149180
149195
149073
149015
148972
149012
149114
149166
149167
149259
149217
149111
149007
149042
149055
149062
149077
149119
149222
149258
149212
149275
149342
149131
148888
148981
149136
149186
149371
149407
149227
149071
149089
149156
149201
149281
149229
149211
149206
149229
149141
149103
149055
149049
149204
149080
149184
149175
149223
149320
149361
149339
149147
149164
149146
149151
149234
149371
149477
149481
149408
149249
149220
149247
149310
149333
149361
149472
149314
149258
149209
149252
149241
149236
149343
149215
149309
149239
149268
149313
149259
149379
149308
149260
149282
149211
149258
149316
149281
149235
149229
149363
149415
149278
149172
149181
149352
149343
149276
149299
149249
149336
149278
149308
149406
149360
149112
149100
148973
149111
149236
149291
149258
149194
149188
149216
149297
149375
149407
149315
149220
149230
149232
149167
149150
149115
149096
149225
149234
149374
149427
149395
149285
149247
149203
149139
149108
149203
149318
149319
149207
149246
149340
149476
149529
149442
149253
149241
149283
149428
149374
149360
149490
149398
149303
149295
149403
149375
149403
149500
149471
149333
149294
149259
149389
149408
149492
149416
149428
149391
149352
149384
149420
149396
149323
149366
149447
149519
149514
149539
149500
149527
149478
149561
149524
149492
149461
149494
149591
149731
149535
149523
149434
149405
149349
149471
149557
149602
149611
149631
149541
149573
149578
149587
149577
149563
149734
149564
149660
149764
149653
149652
149736
149615
149629
149558
149598
149687
149671
149782
149653
149729
149725
149537
149612
149692
149712
149645
149667
149622
149678
149710
149674
149676
149645
149640
149850
149848
149798
149782
149813
149844
149825
149735
149579
149485
149696
149958
149965
149970
149726
149722
149774
149706
149603
149597
149728
149961
149986
149957
149900
149840
149753
149654
149621
149585
149697
149827
149913
150027
149865
149801
149805
149727
149809
149786
149834
149806
149871
149904
149793
149839
149860
149906
149894
149857
149961
149918
149910
150029
149953
149875
149815
149850
149872
149810
149972
149941
149941
149832
149925
150128
150100
150077
149983
149723
149747
149855
149817
149817
149938
149975
149934
149898
149860
149893
149947
150028
149907
149856
149894
149850
149867
149832
149829
149799
149799
149801
149839
149928
149924
149886
149903
150015
150138
150016
149818
149870
149925
150180
150218
150131
150013
150062
150096
150066
150176
150087
149890
149941
149986
150078
150156
150045
149657
149496
149623
149446
149216
149119
149312
149491
149546
149636
149691
149676
149604
149361
149348
149425
149461
149151
148878
148658
148532
148281
148155
148019
147794
147514
147368
147321
147355
147313
147274
147150
147112
147010
146884
146922
146906
146784
146694
146652
146671
146854
146837
146704
146658
146642
146589
146487
146553
146477
146433
146310
146284
146240
146355
146391
146428
146410
146469
146345
146170
146167
146169
146169
146096
146163
146153
146233
146339
146238
146275
146204
146069
146138
146328
146427
146297
146197
146182
146056
146039
146001
145993
145927
146110
146161
146120
146118
146203
146190
146063
145974
146055
146041
146013
146119
146031
146134
146195
146096
145937
145848
145896
145757
145877
145990
145860
145830
145890
145809
145797
145761
145790
145805
145788
145918
145949
145981
145895
145685
145741
145607
145705
145739
145770
145722
145737
145616
145455
145451
145450
145442
145452
145424
145497
145529
145421
145413
145472
145550
145340
145270
145325
145374
145277
145294
145343
145307
145045
145136
145082
145006
145045
144951
144967
145056
145136
145108
145069
144926
144830
144805
144897
144882
144896
144869
144838
144906
144922
144876
144839
144619
144679
144679
144625
144674
144717
144687
144635
144631
144585
144547
144546
144607
144519
144650
144634
144662
144658
144631
144561
144546
144576
144490
144518
144663
144639
144565
144549
144583
144611
144535
144471
144492
144451
144420
144460
144500
144519
144392
144360
144358
144421
144275
144387
144384
144299
144329
144350
144262
144329
144448
144430
144284
144207
144226
144197
144408
144442
144388
144276
144120
144133
144199
144252
144354
144365
144326
144288
144012
143932
143913
144061
144105
144193
144297
144205
144196
143887
143852
143814
143788
143903
144070
144162
144013
143982
143976
143880
143779
143872
143817
143867
143835
143888
143958
143973
143987
143951
143823
143868
143915
143822
143912
143966
143909
143785
143775
143743
143791
143781
143733
143636
143636
143611
143587
143649
143804
143832
143871
143811
143655
143516
143571
143612
143634
143631
143723
143603
143512
143594
143569
143662
143693
143812
143894
143774
143679
143670
143643
143508
143464
143379
143408
143517
143513
143608
143652
143635
143526
143402
143291
143216
143340
143234
143193
143127
143157
143211
143229
143267
143236
143290
143286
143170
143238
143322
143289
143288
143323
143238
143232
143266
143211
143141
143161
143106
143184
143230
143221
143242
143172
143117
142966
143044
143103
143168
143214
143302
143281
143121
143163
143259
143199
143279
143204
143202
143173
143121
142993
142887
142884
142845
142750
142631
142474
142386
142422
142447
142523
142445
142305
142396
142497
142657
142693
142680
142807
142939
142851
142789
142745
142748
142816
142797
142863
142985
142987
143013
143015
142863
142710
142850
142863
142812
142798
142817
142873
142809
142674
142653
142663
142695
142891
142788
142724
142772
142612
142632
142680
142629
142534
142538
142546
142725
142814
142793
142758
142828
142856
142699
142504
142495
142507
142478
142560
142618
142651
142745
142816
142645
142581
142659
142740
142693
142532
142368
142408
142485
142471
142523
142481
142513
142526
142540
142513
142445
142564
142698
142664
142554
142373
142400
142385
142333
142418
142532
142507
142409
142600
142549
142278
142188
142278
142306
142403
142403
142399
142391
142304
142193
142064
142133
142109
142134
142192
142214
142175
142261
142202
142226
142037
141990
142061
142112
142144
142163
142291
142312
142202
142119
142078
142046
142011
141983
141872
141764
141843
141934
142121
142044
141848
141960
142107
141919
141782
141921
141911
141922
141936
141862
141791
141772
141783
141611
141712
141882
141982
141950
141924
141818
141778
141755
141852
141844
141897
141920
141819
141845
141897
141811
141768
141703
141710
141757
141832
141873
141894
142079
142095
141804
141681
141813
141772
141796
141757
141732
141771
141800
141853
141920
141857
141825
141802
141790
141810
141843
141793
141829
141805
141868
141817
141783
141806
141770
141808
141734
141808
141753
141687
141647
141541
141512
141667
141783
141792
141732
141767
141646
141435
141445
141498
141548
141659
141637
141798
141793
141768
141713
141632
141439
141341
141419
141493
141523
141563
141509
141674
141664
141641
141497
141448
141465
141478
141471
141552
141594
141698
141613
141602
141598
141461
141408
141423
141514
141617
141613
141635
141625
141676
141519
141373
141290
141299
141444
141540
141577
141644
141722
141672
141571
141446
141474
141630
141601
141599
141646
141540
141536
141580
141518
141492
141426
141450
141523
141545
141419
141447
141562
141625
141598
141377
141420
141484
141666
141641
141563
141602
141577
141457
141414
141396
141347
141453
141511
141450
141411
141491
141534
141539
141526
141481
141447
141419
141463
141526
141404
141316
141285
141315
141328
141319
141452
141496
141456
141446
141441
141496
141523
141674
141561
141316
141277
141254
141298
141388
141337
141401
141328
141374
141376
141355
141418
141434
141227
141203
141209
141209
141276
141283
141297
141164
141075
141209
141148
141205
141388
141413
141478
141442
141475
141300
141292
141386
141416
141463
141491
141534
141609
141694
141535
141266
141205
141180
141195
141182
141165
141130
141094
141104
140842
140648
140628
140682
140754
140806
140864
140804
140724
140827
140882
140858
140974
141115
141193
141318
141309
141229
141329
141355
141313
141162
141209
141184
141208
141205
141265
141303
141341
141294
141332
141214
141168
141309
141197
141161
141097
141177
141225
141272
141249
141200
141140
141093
141110
141217
141229
141301
141402
141336
141270
141055
141086
141315
141224
141152
141151
141231
141277
141312
141252
141077
141055
141111
141154
141195
141230
141179
141247
141234
141200
141144
141128
141182
141208
141196
141203
141279
141304
141388
141388
141233
141191
141195
141199
141240
141295
141384
141431
141332
141320
141161
141141
141163
141322
141433
141375
141340
141341
141328
141262
141201
141308
141422
141451
141319
141297
141214
141189
141237
141330
141280
141339
141303
141318
141243
141320
141335
141448
141499
141551
141605
141420
141514
141679
141845
141897
141996
141938
141862
141844
141810
141843
141777
141816
141750
141798
141856
141855
141683
141579
141571
141638
141651
141661
141584
141549
141625
141625
141590
141667
141682
141699
141618
141632
141517
141459
141700
141875
141629
141599
141553
141562
141591
141582
141557
141577
141735
141837
141763
141673
141563
141580
141712
141729
141730
141722
141771
141750
141726
141659
141605
141555
141495
141633
141689
141677
141627
141673
141613
141661
141615
141657
141619
141735
141721
141680
141667
141719
141697
141645
141722
141725
141766
141759
141690
141661
141866
141950
141724
141746
141636
141602
141698
141699
141784
141720
141689
141703
141758
141751
141607
141537
141625
141690
141650
141701
141756
141777
141854
141897
141879
141785
141766
141850
141749
141730
141641
141638
141705
141714
141650
141807
141754
141860
141785
141699
141736
141860
141899
141760
141721
141693
141683
141684
141652
141744
141798
141893
141958
141782
141759
141768
141843
141896
141832
141804
141865
141823
141756
141687
141691
141813
141867
141767
141741
141755
141812
141867
141834
141819
141782
141764
141750
141763
141871
141841
141795
141809
141830
141894
141763
141710
141614
141697
141777
141802
141870
141978
141789
141722
141767
141817
141820
141788
141734
141827
141885
141969
141966
141899
141858
141837
141769
141832
141820
141805
141863
141928
141929
141825
141635
141637
141707
141666
141841
141762
141798
141860
141801
141885
141879
141775
141678
141811
141822
141901
141937
141849
141756
141714
141802
141737
141680
141660
141682
141718
141838
141897
141796
141749
141678
141668
141635
141657
141636
141599
141639
141698
141686
141598
141526
141522
141497
141541
141661
141697
141697
141695
141593
141658
141522
141537
141506
141546
141488
141500
141644
141729
141753
141636
141527
141498
141525
141644
141744
141748
141761
141850
141751
141701
141688
141648
141593
141589
141520
141350
141397
141382
141229
141160
141085
141007
140928
140904
140924
140949
140997
141062
141114
141179
141104
141000
141033
141148
141165
141132
141198
141267
141379
141423
141264
141222
141275
141258
141302
141269
141261
141294
141371
141379
141268
141271
141117
141125
141091
141116
141242
141273
141171
141215
141210
141226
141257
141243
141224
141191
141056
140955
141055
141151
141158
141090
141197
141147
141205
141118
141109
141150
141106
141015
141043
140976
140960
140952
140933
140878
140890
140858
140865
141090
141141
140925
140941
140890
140906
140957
140985
140970
140960
140997
140904
140922
140937
140915
140912
140917
141036
141201
141092
141128
140998
140889
140848
140952
140805
140798
140768
140775
140802
140828
140790
140828
140836
140812
140648
140564
140707
140724
140728
140690
140686
140636
140609
140453
140523
140502
140672
140759
140654
140551
140575
140476
140514
140483
140615
140626
140721
140780
140684
140629
140569
140605
140654
140643
140701
140694
140605
140655
140717
140740
140712
140689
140568
140594
140621
140587
140463
140459
140450
140516
140442
140393
140417
140474
140427
140391
140376
140349
140367
140383
140379
140328
140340
140260
140201
140246
140427
140502
140538
140420
140267
140201
140243
140289
140302
140356
140268
140214
140288
140211
140215
140161
140059
139897
139920
139952
140102
140081
140173
140138
140071
140108
140147
140095
140066
140078
139934
139912
139935
140056
140074
140055
140101
140104
140110
140198
140038
139964
139959
139893
139932
140038
139907
139745
139849
139858
139879
139938
139870
139887
139755
139790
139863
139917
139888
139842
139785
139802
139781
139804
139842
139875
139864
139739
139635
139578
139666
139619
139663
139739
139750
139767
139725
139699
139650
139584
139721
139811
139679
139580
139563
139657
139659
139606
139530
139483
139448
139478
139547
139556
139514
139641
139668
139691
139615
139525
139410
139371
139433
139307
139350
139360
139463
139513
139498
139498
139374
139264
139287
139342
139418
139525
139496
139436
139415
139341
139231
139181
139179
139237
139319
139489
139534
139486
139460
139361
139296
139205
139267
139346
139363
139374
139304
139340
139198
139330
139182
139124
139237
139230
139389
139437
139368
139420
139344
139160
139045
139022
139108
139231
139204
139272
139364
139265
139170
139214
139278
139229
139221
139111
139011
139094
139093
139072
139060
139018
139093
139035
139113
139131
139156
139209
139366
139183
139114
139064
138997
139022
139111
139081
139121
139235
139290
139267
139148
139036
138986
138942
138882
138978
138935
138886
138907
138978
139057
139001
138908
138811
138835
138781
138777
138878
138964
138995
139027
138926
138854
138856
138876
138854
138834
139039
139075
139026
138938
138808
138739
138642
138654
138795
138908
138833
138891
138941
138977
138998
139006
138995
139076
139201
139095
139070
139051
139027
138939
138775
138617
138513
138582
138554
138482
138414
138333
138421
138396
138333
138323
138342
138278
138505
138540
138465
138455
138539
138608
138614
138579
138623
138691
138703
138691
138763
138833
138880
138878
138775
138723
138690
138638
138629
138645
138712
138793
138785
138755
138813
138904
138890
138729
138752
138711
138789
138778
138790
138830
138642
138636
138688
138718
138719
138678
138672
138697
138767
138765
138687
138798
138777
138711
138761
138773
138771
138834
138876
138893
138893
138763
138655
138689
138677
138805
138884
138884
138841
138821
138679
138728
138756
138672
138808
138848
138884
138804
138781
138718
138701
138735
138764
138761
138754
138760
138884
138949
138980
138900
138776
138695
138716
138789
138868
138903
138997
138876
138795
138883
138822
138824
138825
138777
138792
138839
138999
139049
139055
139005
138886
138725
138737
138729
138764
138758
138764
138866
138979
138886
138872
138780
138760
138670
138645
138665
138817
138887
138939
138927
138841
138755
138758
138724
138774
138821
138853
138940
139000
138837
138750
138716
138692
138795
138860
138878
138851
138801
138796
138824
138794
138873
138830
138692
138726
138717
138734
138754
138823
138815
138818
138841
138755
138709
138827
138784
138871
138853
138878
138927
138834
138744
138718
138809
138854
138866
138895
138926
138939
138945
138924
138901
138911
138826
138742
138752
138863
139007
139011
138899
138808
138925
138915
138910
139042
139025
139183
139180
139293
139240
139139
139200
139017
139070
139291
139577
139700
139697
139727
139731
139738
139750
139879
139912
140019
140107
140327
140233
140327
140275
140120
139987
140052
140114
140231
140379
140451
140358
140433
140566
140441
140387
140378
140414
140383
140365
140383
140356
140469
140553
140709
140607
140654
140636
140577
140594
140661
140663
140771
140773
140725
140696
140591
140541
140549
140627
140614
140623
140712
140693
140759
140802
140767
140713
140614
140435
140579
140767
140906
140709
140665
140568
140521
140625
140674
140662
140719
140768
140874
140942
140763
140614
140580
140618
140804
140725
140743
140646
140684
140599
140671
140658
140654
140620
140496
140529
140715
140755
140742
140722
140780
140730
140636
140678
140710
140576
140654
140611
140599
140637
140669
140621
140434
140432
140588
140535
140506
140525
140632
140640
140623
140618
140600
140621
140722
140572
140596
140598
140669
140662
140550
140533
140529
140621
140652
140594
140530
140667
140702
140644
140686
140831
140804
140743
140720
140730
140854
140838
140858
140901
140879
140717
140668
140621
140762
140878
140901
140933
140947
140970
140874
140711
140644
140688
140719
140781
140790
140765
140903
140813
140668
140681
140678
140598
140592
140610
140709
140819
140890
140926
140900
140870
140753
140779
140738
140691
140696
140760
140800
140858
140833
140854
140918
140972
140961
141013
140949
140905
140887
140892
141059
140962
140906
140919
140925
140976
140923
140745
140784
140675
140499
140378
140291
140246
140221
140381
140492
140612
140717
140740
140679
140638
140686
140444
140509
140570
140589
140638
140775
140871
140937
140944
140952
140846
140854
140923
140984
141011
140993
140912
140675
140740
140785
140905
141056
141026
140966
140993
140994
141026
141006
141014
140865
140815
140916
140860
140998
141066
141162
141157
141124
141260
141149
140926
140919
140976
140932
141059
141139
141158
141132
141173
141155
140949
140922
140928
141024
141042
141127
141242
141208
141186
141168
141213
141126
140996
141182
141176
141241
141172
141121
141166
141238
141153
141114
141162
141252
141369
141364
141290
141116
141254
141240
141212
141315
141233
141281
141280
141312
141327
141322
141311
141285
141329
141350
141244
141249
141228
141319
141285
141320
141450
141473
141381
141300
141288
141282
141442
141580
141419
141405
141359
141302
141336
141294
141368
141446
141397
141464
141467
141406
141420
141496
141458
141415
141435
141590
141505
141482
141424
141334
141323
141443
141356
141361
141356
141405
141437
141452
141480
141477
141545
141562
141516
141512
141361
141306
141536
141574
141504
141597
141444
141469
141399
141409
141419
141506
141538
141512
141516
141634
141714
141627
141463
141594
141554
141588
141705
141667
141572
141547
141577
141557
141553
141533
141529
141552
141597
141695
141641
141586
141638
141535
141536
141674
141650
141701
141682
141673
141830
141761
141718
141663
141658
141702
141803
141691
141743
141747
141711
141633
141751
141849
141878
141757
141677
141783
141850
141843
141920
141945
141865
141708
141639
141623
141707
141740
141941
141942
141860
141857
141908
141736
141684
141793
141827
141863
141821
141865
141922
141925
141925
141939
141836
141825
141885
141890
141877
141982
142032
141987
142004
141988
141956
141863
141842
141952
142071
142089
141975
141854
141860
141853
141912
141909
141928
141989
142061
142037
142028
141952
141940
142054
142111
142063
141987
142127
142057
142114
142186
142204
142132
142133
142155
142172
142137
142047
142109
142159
142128
142080
142064
142071
142082
142090
142091
142121
142189
142209
142191
142243
142309
142264
142215
142205
142152
142111
142091
142134
142195
142229
142394
142477
142292
142150
142172
142321
142514
142535
142461
142317
142312
142270
142105
142204
142176
142149
142274
142455
142504
142436
142444
142432
142429
142381
142266
142328
142386
142368
142468
142427
142353
142418
142418
142363
142452
142530
142509
142522
142461
142425
142441
142461
142412
142362
142373
142322
142304
142339
142408
142378
142419
142501
142414
142426
142463
142599
142475
142604
142540
142506
142593
142548
142505
142326
142354
142456
142425
142506
142470
142496
142579
142573
142542
142569
142603
142735
142792
142750
142795
142787
142673
142569
142599
142810
142744
142665
142759
142690
142613
142569
142578
142350
142317
142197
142163
142139
142188
142129
142252
142287
142198
142230
142285
142399
142427
142513
142628
142628
142607
142539
142640
142686
142635
142609
142613
142637
142654
142670
142824
142905
142909
142813
142794
142803
142721
142679
142756
142793
142891
142887
142868
142848
142847
142766
142769
142816
142905
142950
142876
142777
142864
142967
142884
142912
142915
142947
143031
143032
143104
143030
143049
142942
142798
142734
142747
142874
143021
142943
142945
143041
143190
143161
143107
142956
142917
143019
143026
143074
143098
143128
143107
142946
142898
143008
143053
143084
143128
143156
143057
143131
143273
143368
143259
143066
143124
143325
143207
143202
143171
143164
143178
143210
143273
143213
143193
143266
143317
143388
143448
143471
143420
143291
143305
143236
143165
143198
143311
143393
143464
143426
143437
143325
143318
143251
143193
143189
143326
143401
143530
143532
143505
143482
143263
143321
143283
143322
143320
143367
143410
143454
143507
143438
143319
143350
143342
143421
143494
143470
143451
143554
143645
143634
143453
143462
143398
143406
143309
143331
143294
143331
143486
143412
143339
143392
143383
143490
143517
143486
143561
143475
143392
143469
143462
143481
143472
143478
143511
143511
143595
143563
143629
143637
143501
143452
143548
143566
143498
143498
143528
143541
143603
143624
143601
143629
143620
143622
143600
143567
143577
143691
143682
143610
143493
143572
143631
143488
143577
143747
143797
143722
143664
143845
143803
143734
143542
143565
143541
143599
143669
143725
143832
143844
143809
143652
143607
143730
143599
143545
143602
143543
143612
143667
143513
143565
143662
143708
143653
143792
143989
143983
143863
143809
143754
143662
143509
143580
143767
143725
143747
143755
143896
143813
143748
143871
143814
143844
143843
143940
143864
143724
143728
143818
143880
143826
143651
143645
143670
143878
143925
144059
144007
143903
143824
143767
143696
143755
143867
143924
143973
144032
144070
144124
144158
143970
143811
143834
143913
143916
143968
144021
144024
144034
144042
143929
143934
144058
144094
144100
144189
144163
144187
144084
143872
143906
143944
144047
144044
144110
144151
144118
143972
144029
144086
144157
144147
144171
144206
144253
144243
144229
144288
144334
144185
144028
144168
144224
144116
144123
144270
144210
144251
144281
144215
144190
144117
144190
144271
144312
144271
144261
144294
144374
144356
144283
144102
144189
144292
144321
144458
144405
144371
144254
144189
144197
144191
144321
144386
144458
144283
144258
144351
144397
144322
144307
144312
144291
144373
144342
144296
144267
144379
144370
144329
144344
144393
144374
144336
144320
144446
144462
144515
144597
144557
144522
144543
144432
144484
144568
144699
144775
144679
144750
144772
144710
144651
144638
144611
144644
144665
144600
144421
144375
144292
144065
143854
143875
143965
144113
144241
144225
144205
144220
144270
144144
144167
144348
144473
144616
144647
144696
144743
144656
144624
144562
144452
144540
144508
144631
144774
144749
144753
144762
144607
144597
144593
144652
144662
144666
144721
144728
144756
144725
144558
144485
144536
144661
144847
144889
144887
144871
144863
144815
144879
144949
144894
144778
144769
144824
144894
144853
144883
144827
144794
144897
144816
144740
144791
144957
144962
144954
144959
144881
144791
144761
144770
144786
144884
145064
145059
144984
144993
145035
145099
145053
144986
145064
144962
144961
145051
145054
145142
145131
145126
144991
145017
145006
144941
144934
145111
145209
145127
145072
145114
145069
144962
145019
145059
145095
145153
145100
145122
145057
145159
145202
145189
145103
145099
145089
145123
145192
145374
145413
145382
145238
145149
145158
145067
145054
145124
145157
145178
145186
145230
145243
145183
145189
145238
145256
145238
145268
145234
145253
145279
145098
145071
145248
145266
145238
145219
145107
145100
145156
145237
145284
145209
145277
145183
145253
145371
145347
145336
145357
145298
145254
145135
145158
145198
145273
145207
145086
145120
145327
145533
145472
145280
145346
145386
145258
145301
145265
145220
145227
145233
145179
145159
145386
145391
145261
145216
145337
145373
145476
145420
145356
145300
145329
145387
145411
145359
145474
145507
145372
145366
145279
145234
145359
145344
145413
145487
145482
145449
145593
145529
145354
145291
145353
145342
145492
145575
145569
145525
145481
145453
145407
145294
145384
145498
145475
145537
145590
145407
145434
145470
145389
145228
145314
145374
145437
145488
145584
145668
145595
145490
145433
145406
145374
145400
145563
145637
145589
145479
145453
145500
145451
145338
145306
145379
145408
145457
145610
145532
145483
145528
145467
145396
145492
145577
145543
145486
145528
145624
145572
145561
145497
145561
145557
145489
145412
145531
145503
145604
145599
145560
145560
145434
145413
145459
145577
145704
145612
145577
145601
145672
145729
145542
145567
145658
145662
145612
145679
145764
145552
145621
145734
145692
145662
145666
145755
145873
145804
145690
145686
145637
145640
145599
145584
145668
145648
145641
145711
145715
145695
145711
145723
145757
145741
145727
145704
145767
145767
145865
145943
145991
145819
145722
145550
145667
145807
145894
145841
145773
145771
145720
145672
145706
145819
145864
145814
145860
145841
145848
145710
145694
145705
145782
145786
145733
145767
145794
145801
145805
145834
145867
145812
145879
145857
145706
145816
145886
145907
146040
146022
145902
146018
145892
145912
146098
146051
146047
146138
146110
146070
146051
145956
145939
145912
145965
145926
145811
145711
145786
145629
145462
145413
145384
145404
145435
145445
145528
145636
145727
145657
145576
145580
145626
145771
145959
145951
145994
146027
146096
146018
145956
146039
145886
145858
145742
145726
145863
146067
146279
146078
146010
145866
145757
145877
146024
146013
146030
146111
146231
146196
146169
146064
145981
146077
146098
146066
146010
145942
146161
146180
146127
146180
146147
146186
146064
146109
146330
146314
146055
145931
145966
146103
146059
145996
146031
146099
146125
146259
146134
145991
146067
146205
146258
146242
146231
146157
146153
146216
146265
146268
146173
146249
146278
146299
146295
146316
146346
146333
146321
146270
146368
146323
146234
146252
146371
146445
146504
146265
146186
146330
146460
146330
146225
146286
146349
146297
146247
146129
146243
146306
146287
146204
146172
146206
146305
146438
146341
146232
146169
146211
146356
146415
146298
146283
146314
146367
146430
146303
146183
146240
146331
146267
146206
146318
146391
146407
146340
146350
146419
146365
146276
146205
146356
146397
146478
146379
146367
146165
146248
146288
146270
146254
146393
146442
146425
146396
146381
146367
146277
146147
146167
146290
146370
146363
146418
146424
146449
146353
146348
146351
146421
146382
146398
146455
146474
146514
146505
146456
146300
146182
146281
146248
146425
146595
146602
146505
146504
146477
146595
146550
146501
146649
146609
146647
146646
146587
146604
146428
146469
146493
146503
146537
146564
146621
146702
146712
146643
146481
146432
146492
146528
146461
146438
146570
146589
146571
146586
146566
146507
146490
146472
146502
146539
146661
146672
146641
146677
146600
146613
146573
146612
146655
146717
146714
146703
146597
146473
146563
146633
146688
146703
146587
146503
146643
146679
146719
146802
146683
146610
146447
146437
146548
146513
146612
146707
146786
146778
146755
146644
146526
146557
146662
146637
146696
146824
146829
146911
146830
146628
146565
146625
146750
146779
146799
146868
146815
146764
146781
146801
146701
146608
146618
146764
146804
146919
146899
146924
146781
146764
146740
146737
146788
146806
146864
146881
146811
146918
146872
146844
146829
146890
146881
146890
146930
147006
147087
147010
146893
146888
146801
146887
146832
146806
146907
146992
147001
147068
146959
146923
146738
146773
146855
146783
146828
146942
146919
146949
146898
146800
146674
146692
146871
146988
146959
147040
147015
146963
146917
146918
146905
146871
146788
146789
146782
146976
146996
147003
147018
146988
146833
146756
146868
146899
146964
146992
147022
147069
147043
147011
147039
147131
147105
147029
147130
147137
147219
147241
147003
146698
146582
146527
146593
146561
146568
146627
146598
146644
146545
146468
146484
146537
146523
146563
146704
146824
146822
146829
146834
146916
146924
146894
146918
146848
146961
147080
147070
147033
147050
146958
146965
146970
146983
146952
147013
147072
146969
146941
146967
146923
147024
147095
147126
147067
147039
146944
146994
147008
147107
147181
147072
147065
147068
146961
147040
147108
147166
147173
147034
147067
147070
147054
147010
147031
147100
147208
147196
147082
147048
147055
147052
147077
147135
147108
147144
147176
147182
147230
147168
147055
146919
147023
147174
147280
147368
147344
147264
147238
147142
147263
147177
147054
147148
147163
147234
147365
147383
147267
147138
147200
147176
147142
147159
147152
147228
147232
147379
147324
147296
147239
147199
147254
147243
147286
147217
147221
147252
147359
147410
147378
147261
147187
147194
147146
147364
147561
147471
147469
147389
147234
147247
147301
147318
147283
147289
147331
147311
147228
147186
147206
147280
147229
147293
147271
147343
147370
147296
147299
147329
147367
147342
147235
147085
147228
147291
147324
147426
147292
147305
147376
147398
147404
147349
147172
147235
147396
147494
147399
147324
147334
147245
147266
147261
147284
147277
147449
147551
147438
147295
147274
147189
147189
147231
147306
147458
147434
147456
147439
147422
147319
147152
147081
147159
147251
147384
147427
147456
147396
147283
147277
147280
147258
147334
147283
147487
147633
147460
147414
147346
147266
147292
147331
147286
147280
147329
147401
147428
147434
147469
147453
147374
147335
147307
147250
147320
147337
147383
147359
147340
147304
147307
147267
147250
147196
147386
147500
147536
147443
147318
147365
147335
147282
147402
147428
147430
147491
147486
147502
147418
147397
147369
147379
147470
147350
147334
147406
147393
147274
147375
147451
147465
147446
147383
147363
147487
147440
147557
147573
147468
147432
147413
147329
147435
147458
147647
147668
147621
147571
147628
147645
147466
147431
147453
147441
147478
147499
147590
147687
147621
147450
147480
147460
147453
147480
147670
147790
147782
147674
147720
147698
147715
147671
147643
147541
147561
147676
147721
147712
147757
147698
147416
147425
147608
147613
147700
147688
147746
147687
147664
147646
147587
147443
147534
147521
147683
147681
147681
147634
147559
147585
147670
147623
147635
147599
147653
147719
147694
147691
147679
147670
147698
147633
147457
147522
147614
147693
147793
147736
147777
147724
147684
147571
147588
147612
147779
147895
148005
148022
147932
147948
147851
147700
147663
147651
147505
147518
147467
147406
147340
147247
147287
147233
147188
147216
147262
147226
147357
147458
147483
147444
147456
147466
147577
147448
147456
147545
147720
147879
147778
147685
147601
147571
147618
147614
147754
147879
147968
147789
147717
147666
147712
147657
147675
147615
147641
147726
147789
147831
147882
147722
147810
147823
147683
147691
147868
147911
147942
147957
147930
147887
147847
147711
147730
147651
147661
147885
147915
148007
147981
147895
147860
147759
147793
147767
147843
147886
147879
147889
147876
147857
147786
147744
147846
147970
148041
148065
148038
147972
147883
147945
147863
147765
147712
147796
147885
148011
148165
148095
147852
147864
147991
147948
147955
147784
147737
147882
147945
147902
147860
147886
147912
147904
147970
147862
147775
147888
147975
148051
148053
148017
147979
148043
147994
147974
147923
148052
148037
147931
147912
147879
148024
147965
147854
147816
147890
147967
147989
147896
147829
147808
147850
147837
147975
147909
147881
147819
147833
147798
147942
148017
147901
147805
147864
147866
147996
147952
147871
147892
147938
147942
147972
147927
147879
147936
147938
147935
147921
147921
147938
147885
148009
147936
147905
148048
148053
148163
148097
147969
147939
147963
147920
147748
147777
147844
148012
148132
148047
148040
147935
147874
147911
147900
147805
147835
147864
147934
148010
147992
147990
147951
147952
147988
147975
147926
147946
148000
147889
147997
148047
148100
148040
147992
147955
147983
148048
148048
148112
148113
148010
148022
148055
147985
147870
147898
147995
148052
148109
148043
148008
147991
147895
147902
147950
147875
147868
147914
147894
147945
147840
147919
148013
148035
147953
147900
147988
148051
148084
148083
147941
148004
148028
147893
147891
147838
147784
147906
148074
148172
148286
148121
147992
147779
147835
147902
147934
147987
148101
148173
148099
148044
147967
147980
147916
147842
147881
148009
148117
148217
148179
148080
148074
147941
147890
147888
148025
148028
148007
148053
148062
148133
148104
148062
148131
148135
148229
148224
148154
148118
148014
148089
148041
148027
148047
148158
148373
148212
148088
148163
148156
148203
148210
148218
148121
148158
148184
148140
148131
148152
148204
148171
148050
147986
147972
148013
148092
148153
148127
148076
148149
148290
148205
148178
148118
148142
148087
148080
148149
148166
148210
148259
148134
147976
148028
148106
148059
148223
148329
148352
148273
148103
147976
148040
148011
148006
148177
148214
148265
148353
148263
148314
148264
148304
148229
148240
148286
148400
148514
148472
148469
148241
148282
148196
148118
148018
148100
148064
148043
147961
147773
147793
147822
147735
147760
147786
147880
147898
147840
147965
148132
148107
148088
148139
148091
148156
148103
148182
148177
148170
148134
148225
148237
148259
148264
148279
148301
148272
148293
148224
148224
148263
148314
148208
148161
148110
148159
148359
148307
148380
148350
148285
148256
148196
148158
148107
148323
148618
148639
148317
148198
148200
148222
148183
148117
148154
148258
148376
148426
148394
148345
148348
148334
148300
148295
148354
148398
148320
148322
148388
148358
148322
148319
148228
148210
148209
148207
148395
148598
148641
148497
148474
148458
148336
148331
148264
148429
148411
148515
148562
148455
148389
148215
148180
148281
148374
148528
148520
148543
148577
148553
148476
148389
148247
148269
148295
148406
148473
148409
148382
148408
148416
148451
148467
148371
148290
148350
148323
148256
148266
148297
148257
148366
148460
148376
148319
148382
148334
148443
148468
148375
148364
148284
148178
148231
148239
148232
148282
148516
148425
148364
148344
148373
148359
148336
148338
148328
148290
148333
148445
148330
148376
148344
148305
148263
148282
148313
148309
148480
148500
148434
148418
148388
148318
148292
148161
148305
148255
148363
148451
148432
148496
148451
148379
148274
148252
148305
148394
148502
148533
148422
148468
148454
148288
148239
148181
148310
148537
148632
148696
148616
148534
148419
148439
148346
148282
148427
148497
148494
148510
148528
148470
148490
148416
148319
148277
148375
148419
148556
148660
148724
148690
148548
148320
148333
148344
148412
148392
148375
148452
148466
148561
148585
148528
148488
148488
148480
148475
148433
148573
148623
148602
148473
148452
148407
148409
148489
148464
148484
148542
148590
148570
148562
148543
148464
148402
148537
148569
148539
148559
148575
148627
148638
148494
148429
148535
148536
148415
148511
148503
148532
148578
148652
148569
148435
148408
148587
148523
148593
148752
148640
148608
148581
148496
148432
148476
148453
148419
148549
148636
148618
148618
148581
148711
148706
148565
148554
148537
148570
148636
148706
148667
148659
148544
148567
148585
148687
148766
148830
148792
148820
148880
148872
148740
148555
148531
148516
148463
148656
148667
148690
148657
148690
148671
148634
148673
148695
148410
148492
148544
148546
148661
148707
148669
148640
148642
148627
148549
148607
148710
148778
148643
148649
148627
148557
148496
148574
148572
148538
148615
148645
148640
148701
148651
148632
148622
148549
148583
148671
148729
148781
148779
148697
148676
148657
148696
148802
148864
148865
148867
148810
148694
148696
148535
148396
148302
148326
148382
148329
148286
148235
148211
148271
148281
148271
148272
148336
148365
148373
148381
148505
148585
148609
148544
148518
148485
148475
148546
148579
148748
148796
148825
148734
148587
148583
148615
148676
148642
148641
148637
148704
148752
148764
148710
148648
148496
148605
148575
148559
148745
148693
148756
148871
148736
148623
148517
148486
148608
148799
148854
148899
148874
148834
148663
148590
148570
148589
148602
148650
148700
148799
148854
148820
148699
148611
148514
148626
148687
148586
148583
148708
148735
148690
148694
148693
148535
148541
148610
148630
148713
148771
148548
148542
148687
148635
148644
148875
148884
148742
148659
148676
148678
148685
148782
148723
148653
148709
148774
148751
148751
148635
148800
148783
148677
148634
148624
148715
148735
148818
148711
148636
148696
148669
148679
148679
148544
148545
148627
148644
148667
148648
148743
148811
148739
148612
148545
148477
148543
148568
148677
148767
148820
148827
148739
148612
148598
148562
148578
148590
148580
148709
148767
148775
148803
148747
148620
148645
148686
148740
148773
148833
148752
148611
148581
148648
148636
148673
148682
148740
148716
148633
148676
148667
148656
148689
148721
148683
148733
148686
148754
148770
148668
148610
148626
148724
148684
148672
148587
148659
148775
148769
148752
148750
148740
148709
148563
148579
148727
148704
148728
148792
148883
148929
148778
148711
148629
148616
148670
148774
148830
148779
148842
148868
148780
148713
148646
148702
148732
148753
148833
148767
148802
148853
148815
148672
148753
148760
148709
148749
148855
148886
148770
148750
148715
148827
148873
148921
148773
148721
148784
148710
148681
148724
148748
148747
148709
148771
148795
148855
148854
148861
148836
148800
148863
148840
148745
148743
148698
148689
148794
148787
148973
149095
148970
148934
148833
148713
148649
148596
148760
148869
148915
148893
148827
148785
148778
148729
148730
148849
148796
148864
148858
148809
148791
148767
148663
148665
148581
148604
148792
148883
148951
148967
148834
148748
148619
148792
148870
148860
149017
149005
148968
148895
148850
148754
148731
148756
148720
148578
148678
148782
148909
148820
148863
148820
148713
148686
148634
148697
148823
148731
148980
149036
149019
148844
148754
148895
149030
149066
149023
149003
148993
148872
148809
148739
148832
148913
148902
148988
148971
148909
148931
148936
149002
148875
148711
148599
148565
148679
148909
149014
149007
148963
148918
148862
148775
148730
148782
148894
148952
148881
148927
148837
148695
148685
148725
148766
148838
148852
148942
148970
149095
149038
149018
148979
148852
149002
149209
149203
149065
148973
149027
149125
149061
148942
148783
148679
148706
148649
148654
148500
148465
148421
148456
148452
148385
148401
148390
148357
148429
148537
148631
148621
148651
148676
148679
148580
148631
148647
148705
148855
149013
148837
148911
148873
148707
148810
148865
148845
148785
148641
148767
148921
148897
148834
148750
148748
148732
148723
148771
148803
148925
148964
148902
148883
148878
148752
148800
148841
148874
148866
148811
148859
148915
148932
148825
148878
148788
148746
148860
148893
148978
149018
148962
148914
148845
148834
148831
148879
148935
148869
148895
148948
148968
149047
148865
148835
148839
148814
148858
149013
148983
148965
148956
148928
148897
148858
148924
148866
148955
149000
149042
148990
148911
148945
148992
148959
148947
148892
148899
148850
148906
148971
149017
148938
148910
148937
148881
148921
148997
148974
148988
149017
149038
149026
148899
148832
149002
149101
149019
149003
148887
148941
149092
148964
148856
148872
148866
148902
149075
149062
149061
149091
148957
148883
148861
148882
148937
148896
148862
148822
148904
148993
148934
148860
148815
148763
148813
148845
148961
148943
149034
149150
149156
148875
148829
148847
148911
148915
148914
148939
149036
149049
149022
148973
148895
148878
148837
148897
148904
148956
149005
149015
149040
148979
148831
148768
148827
148899
148852
148966
149062
149067
149036
148956
148962
148887
148850
148860
148857
148982
149104
149042
149082
149110
148956
148897
148963
148898
148889
148955
149098
149223
149136
149035
148913
148974
149002
149066
149000
148903
148914
148981
149067
149031
148993
149008
149030
148960
149010
149049
149120
149074
148984
149102
148958
148870
148901
148955
148866
148870
148943
148979
149082
149087
148989
148919
149007
148959
149031
149035
149092
149066
148978
148927
148856
148951
148873
148902
149035
149053
149180
149158
149041
148956
148920
148992
148949
148872
148978
149000
149135
149123
149060
149013
148914
148932
148930
148877
148887
148893
149030
149083
149179
149153
149076
149083
148949
148916
148931
148973
149044
148980
148982
149055
149110
149126
149245
149093
149027
149022
149182
149197
149156
148988
148931
148963
149002
149016
149015
148979
148948
149067
149157
149159
149102
149191
149215
149168
149023
148994
149015
149017
149085
149121
149148
149276
149321
149208
149054
149016
149127
149228
149246
149262
149173
149204
149240
149484
149262
149193
149197
149158
149197
149221
149154
149283
149263
149052
149088
149015
149051
149169
149230
149275
149216
149227
149230
149157
149108
149069
149092
149124
148919
148952
149053
149208
149259
149216
149184
149161
149181
149067
148990
149079
149133
149168
149084
149120
149151
148999
148922
148977
149026
149075
149140
149206
149116
149133
149063
149064
149069
149198
149276
149217
149261
149424
149455
149482
149309
149273
149268
149182
149248
149191
149118
149183
148998
149024
148914
148773
148590
148535
148464
148505
148583
148765
148844
148881
148906
148775
148826
148791
148712
148902
149008
149179
149208
149203
149167
149025
149030
149103
149077
149100
149147
149182
149185
149122
149088
149001
148955
149052
149147
149082
149044
149148
149241
149215
149098
149083
148933
149017
149004
149102
149132
149237
149275
149278
149217
149166
149095
149001
149061
149146
149123
149164
149075
149116
149115
149113
149202
149199
149147
149007
149048
149162
149152
149063
149069
149155
149109
149140
149123
149071
149102
149218
149325
149336
149188
149030
149083
149155
149125
149121
149106
149198
149190
149213
149201
149120
149218
149237
149228
149159
149059
149218
149227
149172
149148
149067
149043
149039
149098
149178
149117
149269
149343
149243
149163
149115
149088
149100
149102
149207
149157
149242
149307
149330
149294
149228
149202
149163
149170
149288
149295
149241
149228
149187
149187
149111
149044
149073
149077
149115
149168
149291
149228
149218
149081
148930
148986
149153
149143
149127
148996
149090
149168
149259
149263
149083
149065
149069
148979
149109
149119
149158
149120
149033
149098
149115
149039
148982
148967
149025
149096
149136
149059
149114
149174
149021
148871
148866
148957
149075
149065
149166
149137
149039
149088
149001
149026
149161
149161
148989
149040
149084
149080
149130
149067
149004
149040
149101
148979
149064
149130
149175
149208
149139
148975
149038
149000
149119
148998
149053
149072
149122
149154
149112
149052
148909
148949
149069
149108
149030
148991
148890
148904
148954
148966
149031
149110
149199
149122
149071
149034
149075
149018
148909
148964
148969
148942
149164
149251
149183
149089
149005
148994
149053
149017
148980
148952
148937
148948
148936
148884
148872
148992
149043
149084
148977
148929
148926
148974
148887
148967
148991
149032
148963
148821
148810
148908
148977
149002
148982
148877
148888
148937
148928
148921
149016
149300
149327
149206
149064
148986
148960
148734
148841
148923
148850
148937
149071
149237
149212
149053
148980
148962
148829
148798
148779
148909
149111
149121
149007
148998
148960
148906
148902
148867
148776
148862
148995
148980
148972
148888
148838
148849
148783
148821
148780
148964
149082
148992
149040
149060
149090
149052
148918
148903
148998
149032
149107
149164
149174
149042
149026
149004
149078
149144
149131
149214
149137
149188
149257
149060
149033
148990
149103
149231
149236
149267
149326
149404
149341
149228
149155
149134
149005
149152
149166
149310
149440
149439
149407
149275
149196
149145
149119
149183
149112
149214
149345
149447
149459
149313
149164
149236
149185
149199
149232
149277
149339
149269
149275
149261
149334
149296
149176
149214
149102
149123
149279
149313
149284
149281
149310
149337
149486
149559
149501
149438
149476
149446
149424
149424
149415
149316
149273
149114
148995
149049
149163
149135
149084
148923
148785
148662
148590
148651
148676
148981
148972
149071
149033
149026
148912
148928
148949
149072
149077
149201
149269
149264
149195
149172
149204
149109
149158
149124
149164
149265
149178
149167
149195
149183
149237
149269
149229
149337
149224
149210
149156
149162
149160
149141
149275
149266
149275
149162
149234
149260
149236
149337
149415
149267
149185
149123
149101
149216
149193
149171
149303
149181
149196
149282
149235
149185
149268
149250
149237
149236
149241
149282
149331
149368
149252
149177
149199
149101
149114
149368
149481
149482
149422
149342
149262
149198
149098
149029
149093
149278
149364
149314
149430
149292
149321
149291
149194
149200
149253
149302
149208
149102
149024
149075
149130
149151
149187
149211
149139
149235
149349
149324
149277
149253
149370
149262
149212
149192
149062
149264
149451
149308
149356
149380
149349
149295
149282
149385
149354
149299
149452
149431
149444
149322
149406
149411
149416
149322
149323
149433
149455
149390
149372
149429
149447
149380
149335
149252
149244
149307
149485
149522
149411
149399
149445
149394
149377
149482
149469
149397
149482
149443
149438
149413
149466
149459
149477
149481
149376
149539
149623
149555
149589
149695
149691
149571
149508
149549
149564
149459
149464
149464
149449
149384
149423
149543
149478
149540
149605
149672
149642
149633
149633
149591
149526
149500
149485
149514
149448
149576
149727
149742
149616
149600
149653
149708
149500
149485
149536
149685
149784
149733
149700
149520
149599
149672
149546
149628
149492
149484
149485
149452
149407
149487
149481
149379
149376
149478
149518
149570
149638
149664
149698
149613
149606
149539
149507
149457
149391
149475
149468
149506
149531
149585
149557
149496
149570
149565
149501
149544
149711
149604
149533
149558
149519
149422
149380
149434
149378
149410
149456
149509
149559
149456
149352
149341
149397
149378
149324
149441
149552
149599
149510
149467
149404
149361
149410
149459
149330
149334
149368
149424
149504
149404
149368
149456
149531
149497
149387
149407
149494
149511
149513
149537
149515
149468
149396
149339
149398
149435
149370
149612
149432
149303
149319
149423
149480
149462
149336
149352
149383
149242
149304
149346
149443
149357
149354
149402
149312
149553
149672
149651
149551
149460
149469
149381
149278
149275
149339
149368
149460
149487
149413
149317
149391
149424
149408
149490
149429
149358
149425
149382
149296
149249
149271
149204
149265
149252
149274
149438
149522
149592
149582
149537
149394
149286
149180
149221
149249
149218
149296
149299
149282
149321
149381
149374
149291
149224
149219
149232
149255
149401
149448
149417
149443
149432
149417
149316
149278
149436
149462
149577
149517
149535
149576
149439
149463
149376
149205
149188
149280
149188
149124
149127
148985
148826
148773
148783
148762
148835
148859
148976
149052
149082
149137
149084
148950
148996
149088
149149
149195
149236
149283
149155
149215
149317
149166
149165
149157
149181
149256
149265
149198
149286
149327
149240
149137
149118
149050
149091
149124
149158
149162
149310
149459
149406
149300
149268
149314
149160
149261
149214
149208
149160
149219
149162
149178
149168
149170
149208
149209
149242
149363
149182
149142
149190
149150
149126
149119
149191
149365
149380
149322
149282
149269
149125
149026
149156
149167
149239
149302
149439
149326
149227
149258
149244
149160
149164
149300
149121
149089
149224
149372
149342
149298
149237
149106
149200
149130
149034
149051
149217
149286
149202
149301
149282
149185
149169
149177
149260
149295
149400
149221
149135
149206
149206
149188
149217
149247
149241
149197
149085
149159
149300
149296
149200
149236
149243
149134
149031
149040
149067
149211
149241
149148
149124
149118
149204
149197
149215
149228
149189
149104
149044
149097
149166
149111
149078
149088
149141
149148
149223
149241
149127
149105
148993
149027
149077
149147
149097
149111
149158
149123
149081
149151
149097
149121
149028
149050
149230
149179
149210
149096
149018
149039
148961
148913
148986
148962
149167
149182
149155
149134
149118
149110
149036
149045
149055
149050
149079
149042
149059
149129
149186
149136
149079
148995
148999
149051
149114
149203
149260
149378
149163
149088
149073
148957
148983
149081
148976
149067
149304
149331
149317
149357
149215
149143
149116
149082
149191
149246
149184
149068
149026
149105
149169
149221
149222
149246
149281
149224
149214
149210
149204
149367
149379
149305
149345
149360
149307
149402
149470
149503
149474
149554
149418
149273
149208
149284
149316
149362
149441
149535
149444
149500
149499
149481
149588
149652
149682
149537
149402
149383
149316
149419
149546
149651
149613
149523
149508
149389
149461
149457
149604
149679
149533
149618
149604
149574
149648
149628
149553
149490
149440
149559
149707
149780
149835
149731
149715
149556
149619
149626
149621
149594
149658
149710
149695
149685
149629
149689
149684
149654
149570
149610
149590
149683
149726
149796
149754
149707
149679
149719
149692
149637
149729
149727
149648
149655
149601
149589
149743
149754
149806
149810
149733
149948
149912
149971
149828
149786
149728
149678
149754
149815
149779
149693
149570
149691
149694
149778
149752
149710
149687
149752
149881
149820
149732
149591
149601
149609
149660
149746
149690
149772
149719
149831
149921
149882
149914
149725
149693
149706
149673
149723
149701
149711
149745
149766
149772
149788
149795
149850
149750
149828
149854
149848
149754
149724
149755
149862
149870
150032
150117
150072
150098
150076
149939
149999
150073
149931
149779
149714
149663
149682
149631
149569
149435
149356
149307
149281
149378
149503
149427
149497
149586
149628
149791
149837
149710
149674
149606
149664
149797
149897
149988
150031
149887
149804
149833
149842
149929
150011
149947
149951
149945
149934
149956
149855
149939
149943
150122
150114
150041
150010
149984
150003
149945
149904
149828
150074
150168
150184
149999
149943
149912
149827
149863
149826
149954
150067
150214
150401
150207
150145
150116
149926
149831
149953
150079
150151
150164
150042
150035
150024
150000
150035
150057
149989
150039
150201
150155
150118
150141
150139
150137
150059
150000
149981
150151
150268
150309
150177
150076
150118
150247
150207
150277
150218
150249
150241
150263
150318
150332
150263
150266
150229
150120
150187
150253
150285
150298
150315
150330
150368
150297
150201
150115
150005
150224
150423
150521
150495
150246
150272
150330
150209
150260
150198
150307
150256
150314
150330
150305
150400
150449
150401
150319
150313
150307
150309
150275
150423
150408
150406
150406
150429
150271
150254
150390
150416
150389
150314
150232
150260
150364
150333
150337
150259
150370
150282
150523
150589
150508
150475
150361
150365
150363
150372
150444
150462
150491
150531
150427
150439
150411
150415
150452
150383
150402
150392
150447
150539
150581
150623
150684
150581
150432
150276
150426
150546
150536
150564
150574
150636
150573
150533
150534
150510
150540
150543
150639
150689
150683
150643
150725
150614
150569
150581
150596
150517
150629
150661
150675
150701
150741
150686
150599
150649
150720
150790
150804
150779
150784
150710
150820
150629
150561
150581
150641
150728
150745
150775
150903
151021
151094
150993
150799
150626
150622
150693
150775
150744
150801
150800
150859
150918
150961
150916
150807
150630
150690
150740
150847
150852
150843
150839
150923
150900
150780
150803
150766
150714
150825
150809
150795
150928
150936
150791
150736
150785
150853
151009
151026
150927
150924
150910
150850
150731
150848
150810
150833
151010
150969
151000
150947
150852
150840
150737
150868
151001
150957
150901
150910
150899
150831
150840
150864
150769
150831
150976
150916
150920
150876
150933
151028
150984
150842
150756
150961
151080
151044
151094
151109
151000
150963
150954
150933
150848
150996
150990
150952
151040
151117
151096
151169
151192
151107
151142
151097
151048
150984
151008
151044
151104
151109
151020
150942
150990
150986
150819
150787
150845
150917
151038
151058
150983
150925
150846
150972
151020
151017
150964
150916
150981
150997
151032
150858
150778
151039
151076
151041
151014
150963
150976
151109
151115
151042
150948
151015
150893
150965
151072
151174
151130
151097
151060
151056
151000
151025
151117
151213
151196
151175
151220
151177
151072
151005
150852
150727
150741
150643
150810
150902
150834
150567
150646
150673
150514
150565
150544
150585
150758
150776
150726
150780
150848
150825
150808
150838
151007
151094
151122
151093
151129
150911
150947
150949
150842
150889
150947
151022
151130
151153
150999
151076
151112
151100
150856
150814
150945
150988
150912
151003
151046
151075
151127
151023
150887
150946
150995
151111
151215
151224
151243
151239
151128
150973
150955
151064
151054
151012
151059
151108
151174
151119
151087
151134
151112
151027
151000
151069
151192
151236
151200
151130
151105
151042
150806
150861
150958
151125
151277
151250
151203
151221
151121
151015
150973
151125
151152
151274
151316
151255
151194
151214
151191
151079
150999
151087
151156
151210
151100
151091
151120
151272
151225
151006
151008
150950
150993
151147
151286
151269
151183
151153
151129
151032
150944
150994
150963
151090
151117
151103
151101
151089
150977
151038
151017
151017
150966
151027
151092
151058
151053
151096
151147
151069
151070
151048
150956
150941
151071
151077
151113
151085
150990
151062
150980
150981
151011
151019
150950
150939
151022
151070
151079
150992
150863
150804
150818
150965
151096
150969
150948
150902
150878
150884
150908
150840
150867
150946
150869
150915
151013
151117
151201
151061
150881
150912
150876
150845
150905
150929
151033
150994
150851
150804
150810
150830
150858
150862
151008
151049
151026
150959
150910
150756
150721
150860
150866
150868
150985
151025
151098
151064
151038
150858
150801
150839
150951
150802
150886
150948
151063
151068
151071
150944
150783
150808
150757
150859
150894
150980
150959
150958
151014
150987
150846
150756
150739
150811
150911
150977
150942
150846
150769
150714
150810
150826
150996
151049
151033
150881
150911
150947
150876
150782
150707
150768
150900
150887
150817
150909
151022
150919
150795
150780
150780
150842
150952
150892
150846
150858
150867
150854
150842
150841
150767
150791
150750
150714
150805
150797
150887
150924
150919
150837
150743
150729
150834
150955
150920
150903
150841
150856
150819
150864
150758
150776
150864
150912
150835
150784
150810
150844
150939
151034
150899
150783
150759
150840
150731
150767
150802
150842
150902
150799
150784
150762
150883
150949
150900
150902
150961
150963
150946
150900
150844
150769
150864
150889
150966
150885
150916
150846
150860
150903
150785
150907
150821
150741
150786
150754
150756
150751
150734
150696
150687
150667
150658
150732
150851
150879
150851
150794
150798
150780
150681
150585
150687
150786
150790
150730
150718
150734
150803
150702
150619
150665
150633
150668
150714
150746
150764
150718
150707
150669
150573
150704
150779
151031
151044
150957
150918
150915
150877
150816
150639
150669
150714
150697
150684
150698
150694
150599
150591
150450
150276
150135
150167
150116
150061
150168
150395
150258
150238
150388
150447
150359
150336
150469
150497
150521
150527
150679
150638
150700
150671
150596
150539
150559
150601
150591
150701
150686
150652
150622
150421
150445
150481
150576
150718
150619
150612
150797
150705
150706
150646
150611
150435
150420
150500
150504
150562
150580
150646
150739
150703
150514
150522
150559
150641
150640
150772
150601
150428
150432
150545
150501
150458
150485
150561
150589
150700
150696
150593
150522
150363
150460
150577
150621
150537
150510
150622
150521
150438
150547
150557
150511
150565
150553
150593
150574
150589
150684
150703
150603
150482
150566
150596
150428
150502
150552
150627
150589
150520
150482
150515
150661
150637
150612
150490
150469
150554
150620
150557
150499
150455
150426
150420
150371
150448
150557
150592
150685
150655
150530
150587
150489
150412
150442
150550
150572
150631
150643
150599
150518
150364
150332
150323
150398
150392
150403
150481
150528
150530
150462
150366
150280
150289
150392
150459
150638
150675
150579
150477
150478
150294
150322
150415
150417
150394
150381
150372
150348
150329
150293
150196
150258
150449
150412
150383
150409
150443
150481
150405
150359
150341
150244
150250
150292
150342
150552
150569
150522
150545
150500
150372
150200
150099
150090
150256
150410
150428
150484
150439
150500
150442
150373
150318
150387
150422
150383
150329
150352
150383
150391
150276
150185
150206
150323
150334
150230
150366
150506
150497
150498
150373
150310
150314
150430
150409
150359
150306
150381
150334
150392
150443
150379
150316
150287
150314
150368
150305
150419
150391
150359
150328
150202
150244
150286
150272
150288
150373
150430
150417
150362
150449
150519
150458
150404
150364
150289
150406
150403
150345
150259
150228
150129
150128
150222
150374
150396
150476
150426
150339
150379
150287
150227
150260
150287
150280
150288
150405
150445
150476
150507
150392
150284
150205
150347
150359
150351
150399
150517
150557
150444
150358
150255
150269
150203
150215
150267
150285
150389
150288
150287
150382
150349
150274
150265
150270
150208
150305
150368
150411
150445
150301
150286
150318
150272
150350
150341
150402
150453
150445
150440
150470
150439
150340
150300
150382
150405
150589
150593
150413
150336
150292
150293
150324
150328
150361
150330
150409
150418
150432
150357
150325
150281
150213
150220
150265
150214
150368
150356
150324
150327
150361
150158
150106
150186
150280
150378
150529
150486
150448
150366
150166
150224
150224
150188
150149
150162
150344
150343
150351
150421
150400
150405
150346
150382
150403
150435
150507
150673
150657
150683
150581
150547
150458
150379
150334
150324
150340
150321
150261
150224
150088
149831
149704
149774
149836
149764
149967
150059
149948
149977
150013
149921
150015
150155
150180
150222
150311
150409
150422
150309
150192
150195
150284
150370
150428
150436
150490
150584
150489
150479
150330
150148
150100
150117
150195
150135
150298
150395
150486
150556
150549
150477
150355
150185
150231
150195
150366
150438
150362
150381
150306
150357
150290
150235
150217
150316
150451
150566
150503
150487
150438
150394
150234
150229
150306
150268
150458
150593
150626
150509
150324
150256
150234
150288
150337
150300
150433
150509
150488
150485
150393
150318
150341
150347
150431
150453
150484
150455
150415
150420
150410
150378
150441
150428
150390
150467
150553
150643
150662
150548
150452
150310
150326
150384
150442
150456
150561
150605
150461
150418
150339
150452
150310
150299
150424
150359
150392
150526
150513
150490
150375
150372
150293
150322
150281
150312
150298
150404
150485
150497
150392
150375
150330
150172
150232
150079
150302
150458
150429
150484
150402
150387
150317
150361
150240
150235
150356
150430
150336
150345
150193
150235
150219
150351
150402
150249
150353
150330
150280
150250
150292
150244
150245
150311
150358
150347
150292
150288
150392
150432
150450
150421
150265
150263
150206
150198
150325
150330
150407
150354
150329
150300
150262
150287
150221
150248
150396
150356
150250
150263
150359
150362
150409
150443
150400
150365
150415
150373
150301
150301
150214
150361
150427
150371
150328
150295
150445
150554
150533
150481
150309
150318
150342
150361
150428
150360
150326
150337
150358
150360
150391
150307
150136
150204
150294
150357
150413
150328
150358
150468
150400
150260
150239
150248
150226
150312
150386
150398
150406
150340
150304
150300
150149
150248
150257
150298
150354
150347
150355
150290
150219
150344
150286
150299
150287
150210
150275
150377
150581
150307
150102
150270
150278
150241
150213
150178
150283
150341
150349
150325
150238
150310
150244
150213
150240
150293
150417
150511
150413
150363
150393
150280
150113
150151
150229
150135
150398
150577
150502
150372
150316
150262
150286
150290
150331
150326
150425
150456
150476
150522
150456
150317
150234
150271
150298
150272
150325
150446
150435
150378
150285
150288
150312
150259
150240
150324
150452
150408
150357
150321
150238
150318
150293
150230
150227
150247
150216
150264
150342
150298
150291
150292
150218
150158
150191
150174
150301
150332
150343
150331
150245
150135
150149
150153
150277
150254
150223
150387
150485
150368
150159
150173
150175
150254
150183
150255
150403
150399
150431
150433
150378
150368
150262
150251
150270
150149
150147
150117
150074
150058
149988
149724
149575
149647
149701
149597
149578
149715
149831
149917
149979
149951
149899
149936
150008
150006
150045
150095
150246
150404
150311
150144
150062
150044
150185
150085
150055
150097
150079
150098
150053
150155
150038
150015
150048
150026
150136
150370
150396
150269
150115
150081
150094
150065
150030
150052
150145
150237
150248
150252
150229
150178
150174
150138
150166
150171
150249
150256
150332
150354
150146
150085
150087
150082
150163
150081
150144
150262
150224
150207
150070
150086
150079
150119
150167
150149
150239
150371
150247
150147
150096
150110
150164
150099
150213
150269
150277
150465
150482
150350
150362
150278
150115
150094
150059
150020
150163
150258
150319
150305
150280
150269
150209
150123
150207
150173
150144
150209
150258
150155
150030
150028
149937
150026
150204
150183
150220
150226
150178
150077
150056
150133
150135
150105
150183
150118
150074
150101
150162
150204
150000
150061
149984
150046
150073
150189
150188
150133
150127
150129
150130
149961
149966
150073
150067
150035
150074
150173
150242
150129
150056
149958
149887
150045
150140
150042
149933
150001
150044
150066
150110
150080
150025
150020
150021
149979
149954
150070
150145
150129
150093
149888
149776
149715
149865
149887
150036
150234
150275
150247
150157
150097
149967
149862
149846
149888
150015
150084
150110
150139
149925
149969
149965
149929
149865
149961
150011
150104
150147
150106
150130
150033
149874
149768
149760
149644
149830
150036
150119
150005
149916
149887
149779
149785
149950
150023
150021
150001
149992
150005
149929
149896
149932
149803
149892
149865
149728
149848
149912
149986
149989
150064
149987
150007
150026
149974
149990
149923
149844
149861
149842
149855
149766
149713
149860
149855
149957
149980
150020
150020
149997
150007
149869
149653
149661
149680
149799
149875
149896
149881
149881
149924
149920
149801
149850
149909
149824
149861
150016
150031
149816
149747
149778
149706
149671
149769
149801
149939
150034
150005
150018
150025
149914
149759
149657
149674
149801
149899
149797
149868
149880
149827
149858
149852
149803
149792
149878
149964
149962
149863
149798
149969
149899
149873
149920
149791
149717
149803
149949
149902
149793
149746
149678
149680
149799
149791
149791
149790
149877
149928
149835
149796
149747
149750
149778
149798
149786
149837
149909
149855
149776
149667
149542
149631
149715
149714
149874
149957
149965
149843
149835
149786
149738
149648
149640
149685
149741
149885
149955
150046
149970
149816
149863
149860
149831
149782
149818
149745
149795
149703
149667
149657
149445
149303
149249
149156
149147
149222
149237
149324
149393
149229
149299
149246
149310
149404
149514
149580
149614
149649
149609
149588
149599
149672
149639
149574
149571
149648
149796
149789
149726
149654
149533
149436
149608
149587
149633
149739
149860
149846
149675
149661
149606
149542
149639
149586
149552
149673
149703
149604
149702
149796
149677
149644
149676
149700
149741
149734
149765
149641
149636
149651
149588
149460
149437
149554
149727
149780
149784
149772
149665
149671
149635
149446
149489
149559
149674
149820
149735
149815
149852
149791
149666
149539
149409
149534
149701
149692
149716
149750
149710
149747
149761
149707
149637
149639
149652
149725
149788
149691
149621
149593
149677
149605
149679
149674
149683
149761
149652
149639
149609
149582
149645
149657
149605
149568
149612
149615
149597
149666
149627
149613
149534
149461
149503
149591
149587
149630
149587
149529
149565
149625
149568
149645
149597
149491
149527
149589
149576
149451
149447
149592
149549
149558
149500
149479
149508
149531
149562
149537
149407
149445
149294
149329
149482
149562
149518
149461
149529
149491
149428
149456
149426
149376
149472
149433
149406
149484
149591
149653
149573
149532
149522
149436
149345
149234
149297
149385
149426
149408
149435
149484
149465
149502
149356
149350
149403
149448
149402
149510
149430
149396
149274
149370
149355
149464
149511
149542
149634
149464
149459
149507
149430
149329
149424
149337
149433
149383
149532
149544
149438
149473
149458
149346
149372
149328
149308
149414
149594
149617
149513
149471
149509
149645
149542
149387
149383
149365
149417
149397
149404
149408
149359
149471
149452
149329
149316
149400
149577
149573
149458
149410
149468
149415
149381
149348
149393
149422
149459
149439
149348
149368
149407
149419
149509
149444
149399
149339
149298
149453
149396
149339
149295
149395
149453
149405
149441
149359
149381
149410
149365
149268
149334
149225
149246
149299
149378
149466
149514
149555
149402
149406
149416
149291
149234
149173
149253
149309
149415
149383
149410
149471
149386
149356
149277
149273
149370
149463
149447
149418
149478
149521
149524
149414
149300
149168
149263
149368
149425
149463
149459
149459
149446
149386
149365
149306
149304
149376
149216
149312
149353
149320
149297
149170
149300
149321
149374
149323
149323
149396
149420
149410
149287
149269
149194
149142
149148
149160
149345
149442
149396
149384
149431
149369
149286
149168
149147
149133
149223
149330
149315
149284
149352
149299
149369
149310
149231
149346
149498
149613
149737
149741
149634
149433
149259
149288
149348
149303
149275
149192
149147
149138
149065
148838
148762
148755
148752
148741
148923
149010
148864
148938
149006
148859
148893
148915
149013
149046
149166
149213
149376
149379
149335
149234
149151
149082
149112
149269
149367
149349
149290
149290
149210
149255
149216
149231
149237
149316
149498
149469
149299
149248
149179
149146
149107
149115
149282
149368
149320
149275
149370
149436
149423
149316
149260
149247
149277
149282
149308
149402
149348
149250
149115
149153
149232
149276
149324
149274
149305
149378
149376
149317
149198
149181
149146
149195
149365
149329
149384
149411
149311
149308
149342
149321
149226
149187
149340
149409
149490
149513
149491
149432
149313
149232
149165
149215
149362
149462
149455
149348
149318
149359
149343
149315
149316
149306
149389
149312
149377
149419
149454
149430
149423
149411
149328
149387
149320
149230
149319
149413
149391
149280
149310
149282
149381
149408
149456
149445
149513
149433
149260
149381
149497
149353
149285
149182
149296
149427
149484
149405
149356
149361
149366
149367
149294
149335
149341
149310
149229
149335
149423
149435
149300
149254
149259
149307
149311
149362
149411
149420
149303
149279
149302
149262
149335

[HeartVoice API 返回]
# HeartVoice 专业 API 返回的聚合指标（不返回原始波形分析数据）
# 与下方 [算法提取后的结构化特征] 对照可定位本地算法差异
平均心率:80
最低心率:0
最高心率:0
诊断:SN
QRS宽度:100
P波宽度:97
PR间期:148
QT间期:329
QTc:379
房性早搏:0
室性早搏:0
信号质量:0.93
导联反接:true
是否异常:false

[算法提取后的结构化特征]
# 由 EcgFeatureExtractor.extract() + toPromptText() 在手机端重建
# 与手表端发给 DeepSeek 的提示词文本一致（DS 实际收到的数据）
# 注意: 用户 profile（年龄性别）未存入测量记录，手机端重建时为'未知'
#       助手如需年龄性别做医学判断，需用户单独提供

[用户属性]

[全局指标]
采样率:500Hz 时长:30.9s 总点数:15460
R波检测:35个 平均心率:77bpm 范围:68-81bpm
R波位置(样本索引):39,430,1097,1324,1562,1996,2870,3372,3525,4959,5329,5494,5688,5987,6427,6935,8243,8409,9050,9210,9417,9600,10339,10753,11125,11364,11858,12132,12870,13047,13435,13819,14197,14743,15302
RR间期序列(ms，[*]为偏离均值>20%的异常间期，多为早搏/误检):782 [1334*] [454*] [476*] 868 [1748*] [1004*] [306*] 740 [330*] [388*] [598*] 880 [1016*] [332*] [1282*] [320*] [414*] [366*] [1478*] 828 744 [478*] [988*] [548*] [1476*] [354*] 776 768 756 [1092*] [1118*]
RR差值序列(ms):552,-880,22,392,880,-744,-698,434,-410,58,210,282,136,-684,950,-962,94,-48,1112,-650,-84,-266,510,-440,928,-1122,422,-8,-12,336,26
SDNN:49.5ms RMSSD:82.4ms pNN50:62.5%
QRS宽度(本地估测,ms):46±6
PR间期(本地估测,ms):166±64
QT间期(本地估测,ms):399 QTc(Bazett):452ms QTc(Fridericia):433ms
R波平均振幅:0.43mV
R波极性:负向(负向提示导联反接/位置异常)
T/R振幅比:1.24(正常0.1-0.5，<0.1低平，>0.5高尖)
ST段偏移(本地估测,mV):-0.036(正常±0.05，>0.1抬高，<-0.1压低)
信号质量:1.00 良好

[节律判别特征]
R波可靠性:可信
RR变异系数:0.062(轻度不齐)
Poincaré散点形态:鱼雷形(轻度不齐)
短-长RR配对数(早搏代偿):4个

[逐秒分段]
时段(s)  R波  振幅范围(mV)  峰峰值(mV)  最大斜率(mV/s)  RMS(mV)
0.0-1.0  2  -1.01~0.88  1.89  123.50  0.40  ← 短RR+代偿间隙(早搏可能)
1.0-2.0  0  -0.89~0.62  1.51  119.00  0.33  ← 代偿间隙(配合前秒短RR)
2.0-3.0  2  -1.20~1.13  2.33  134.00  0.52
3.0-4.0  2  -0.84~1.20  2.04  144.00  0.55  ← 短RR+代偿间隙(早搏可能)
4.0-5.0  0  -0.47~0.62  1.09  152.00  0.27  ← 代偿间隙(配合前秒短RR)
5.0-6.0  1  -1.07~0.57  1.64  135.50  0.40
6.0-7.0  1  -1.05~1.34  2.39  130.50  0.65
7.0-8.0  1  -1.02~0.74  1.76  157.00  0.33
8.0-9.0  0  -0.60~0.36  0.96  112.00  0.14  ← 本秒无R波(心率<60或代偿间隙)
9.0-10.0  1  -0.67~0.46  1.13  143.50  0.20
10.0-11.0  2  -0.65~0.34  0.98  140.00  0.13
11.0-12.0  2  -0.59~0.63  1.23  137.00  0.24
12.0-13.0  1  -3.07~1.05  4.12  194.00  0.89
13.0-14.0  1  -1.98~2.83  4.82  154.50  1.31
14.0-15.0  0  -0.89~0.48  1.37  134.50  0.26  ← 本秒无R波(心率<60或代偿间隙)
15.0-16.0  0  -1.97~1.69  3.66  113.50  0.98  ← 本秒无R波(心率<60或代偿间隙)
16.0-17.0  2  -1.51~1.41  2.91  143.00  0.97  ← 短RR+代偿间隙(早搏可能)
17.0-18.0  0  -1.16~1.25  2.42  115.00  0.70  ← 代偿间隙(配合前秒短RR)
18.0-19.0  3  -1.20~1.04  2.24  113.50  0.64
19.0-20.0  1  -0.97~0.89  1.86  152.50  0.43
20.0-21.0  1  -0.60~0.64  1.25  141.00  0.29
21.0-22.0  1  -0.52~0.50  1.02  161.00  0.23
22.0-23.0  2  -0.51~0.49  1.00  142.50  0.16
23.0-24.0  1  -0.58~0.44  1.02  140.50  0.15
24.0-25.0  1  -0.62~0.58  1.19  152.50  0.22
25.0-26.0  1  -0.58~0.63  1.21  121.00  0.22
26.0-27.0  2  -1.25~0.71  1.96  133.50  0.47
27.0-28.0  1  -0.69~0.56  1.25  126.00  0.25
28.0-29.0  1  -0.64~0.34  0.98  137.00  0.13
29.0-30.0  1  -0.82~0.52  1.34  132.00  0.25
逐秒RMS:0.397,0.326,0.517,0.552,0.266,0.396,0.653,0.326,0.136,0.204,0.131,0.241,0.889,1.313,0.256,0.983,0.971,0.703,0.643,0.432,0.293,0.227,0.156,0.145,0.222,0.223,0.466,0.252,0.126,0.254

[AI 解读]
# DeepSeek 返回的原始 JSON（未清洗，可能含 markdown 代码块包裹）
本次测量未使用 AI 分析（分析方法非 ds_*）
