========== ECG 算法诊断包 ==========
测量时间: 2026-07-17 17:03:08
测量时间戳:1784278988399
采样率:500 Hz
数据点数:15330
时长:30.7 秒
分析方法:ds_raw
算法版本:v8
Tavily状态:未配置 Tavily Key（均衡/Max 档可选联网，本次未检索）

[原始 ECG 数据]
# 单位: mV×1000 整数（如 500 = 0.5mV，-1000 = -1.0mV）
# 采样率: 500 Hz，连续采样，无降采样无压缩
# 用途: 助手据此复现本地算法行为（基线漂移/噪声段/R波检测）
# 格式: 每行一个数值，行号=采样点索引（第1行=索引0，即 t=0.000s）
142185
142184
142089
142009
142050
142092
142153
142192
142119
142063
142031
142227
142330
142328
142320
142168
142123
142045
142071
142103
142098
142250
142365
142211
142152
142096
142064
142052
142042
142111
142056
142058
142118
142163
142224
142276
142086
142128
142045
141973
141834
141795
141756
141880
142063
142133
142070
141991
142015
142056
141944
141943
141939
141900
141891
141884
141888
141912
141975
142022
142008
142112
142123
142109
142069
141967
141838
141836
141871
141870
141796
141830
141959
142004
141945
141897
141921
141984
142021
142021
141871
141887
141960
141994
141934
141931
141954
141868
142037
142080
142138
142062
141985
141969
141978
142059
142235
142078
142050
142010
141939
142009
142065
142241
142262
142193
142089
142067
142176
142225
142120
142149
142101
142014
141935
142001
142002
142190
142230
142210
142143
142098
142058
142125
142161
142068
142134
142114
142124
142178
142076
142085
142113
142194
142173
142011
142088
142213
142364
142330
142093
142056
142033
142037
142120
142200
142260
142249
142286
142269
142164
142109
142051
142103
142140
142214
142307
142305
142228
142196
142141
142169
142286
142339
142352
142212
142331
142348
142313
142306
142245
142201
142300
142428
142416
142237
142229
142255
142382
142532
142500
142442
142521
142524
142475
142401
142455
142586
142659
142517
142391
142400
142422
142457
142544
142540
142526
142634
142572
142520
142515
142551
142578
142556
142554
142521
142488
142479
142465
142398
142333
142356
142459
142609
142630
142534
142542
142492
142421
142552
142614
142618
142588
142435
142430
142424
142528
142517
142438
142407
142309
142425
142463
142446
142519
142478
142433
142433
142568
142536
142427
142486
142535
142459
142311
142230
142345
142440
142519
142493
142435
142459
142418
142358
142375
142339
142257
142289
142379
142371
142362
142499
142545
142432
142451
142275
142237
142377
142381
142458
142446
142358
142384
142408
142466
142455
142429
142366
142465
142422
142325
142413
142483
142497
142413
142489
142579
142533
142583
142629
142570
142515
142559
142567
142586
142556
142722
142718
142567
142601
142600
142661
142718
142670
142674
142597
142617
142630
142645
142707
142821
142855
142816
142769
142732
142613
142604
142707
142837
142906
142814
142829
142867
142862
142774
142683
142661
142646
142641
142583
142555
142682
142748
142798
142845
142901
142890
142796
142808
142824
142718
142717
142720
142674
142677
142700
142796
142826
142806
142819
142748
142832
142722
142679
142653
142729
142900
142963
142856
142819
142689
142721
142775
142816
142873
142851
142967
143017
143008
142866
142792
142824
142952
143085
143204
143160
143147
143089
143005
143184
143196
143133
143134
143039
142885
142808
142830
142730
142738
142688
142678
142581
142567
142605
142678
142657
142677
142622
142692
142622
142663
142824
142973
142940
142947
142953
143017
143091
143016
143009
142981
143051
143004
143051
143149
143085
143038
143137
143192
143225
143113
143083
143078
143144
143199
143133
143180
143186
143254
143254
143165
143227
143245
143263
143307
143184
143168
143145
143119
143062
143118
143212
143211
143240
143336
143313
143310
143319
143351
143284
143242
143246
143282
143272
143321
143238
143200
143318
143332
143284
143191
143214
143198
143201
143238
143183
143241
143238
143271
143334
143280
143241
143274
143332
143270
143297
143291
143258
143280
143392
143371
143397
143290
143282
143368
143386
143457
143464
143376
143393
143356
143375
143485
143446
143453
143457
143443
143459
143504
143496
143416
143529
143672
143699
143729
143648
143589
143568
143576
143532
143498
143519
143410
143490
143595
143624
143681
143729
143670
143667
143689
143690
143481
143412
143526
143523
143624
143653
143540
143576
143509
143559
143607
143605
143623
143567
143446
143379
143414
143433
143436
143548
143661
143588
143631
143665
143676
143573
143445
143372
143434
143536
143638
143581
143544
143521
143608
143551
143475
143511
143498
143475
143460
143609
143641
143575
143570
143595
143636
143666
143556
143589
143606
143534
143518
143453
143557
143577
143508
143520
143611
143714
143668
143548
143488
143573
143704
143668
143538
143543
143483
143549
143719
143844
143740
143684
143627
143604
143612
143572
143617
143680
143715
143665
143698
143594
143520
143546
143640
143810
143811
143756
143684
143558
143660
143611
143524
143515
143569
143630
143766
143755
143762
143778
143783
143811
143803
143769
143685
143636
143606
143653
143779
143759
143766
143655
143729
143705
143607
143479
143463
143607
143753
143724
143783
143706
143702
143680
143725
143663
143686
143725
143789
143785
143706
143623
143718
143727
143729
143787
143799
143776
143751
143799
143855
143834
143853
143804
143769
143756
143830
143913
143825
143854
143793
143806
143921
143964
143963
143964
143905
143804
143857
144008
144011
143822
143817
143777
143852
143891
143944
143935
143886
143799
143857
143869
143933
143955
143934
143937
143876
143876
143880
143940
143890
143872
143998
144023
144096
144091
143991
144010
144071
144013
143968
143954
143933
143921
144001
144071
144026
144108
144082
143966
143901
143897
143934
143949
143884
144027
144057
143962
143931
143906
144012
144003
143956
144016
144166
144131
143961
144041
144053
144027
144036
144118
144100
144058
144092
144097
143976
143967
144042
144167
144258
144181
144153
144178
144146
144176
144107
144128
144159
144106
144214
144253
144247
144231
144214
144228
144251
144273
144181
144121
144191
144180
144204
144167
144265
144256
144212
144178
144213
144398
144358
144251
144241
144257
144310
144355
144360
144311
144345
144315
144241
144217
144367
144390
144354
144383
144268
144314
144328
144382
144344
144203
144426
144620
144537
144464
144491
144370
144306
144333
144445
144649
144521
144426
144410
144472
144445
144418
144357
144374
144348
144472
144514
144617
144600
144471
144371
144351
144476
144472
144480
144459
144480
144514
144496
144418
144365
144430
144397
144527
144507
144352
144397
144535
144570
144509
144522
144584
144486
144382
144335
144257
144395
144547
144642
144640
144605
144679
144586
144563
144626
144692
144713
144630
144666
144674
144799
144881
144804
144882
144907
144879
144888
144915
144921
144954
144821
144756
144675
144589
144554
144469
144363
144393
144387
144366
144375
144435
144357
144299
144363
144354
144413
144431
144387
144483
144506
144680
144733
144733
144758
144744
144737
144758
144772
144777
144823
144940
144886
144829
144820
144836
144883
144882
144804
144791
144800
144930
144902
144922
144951
144973
144995
144995
144950
144934
144962
145040
144925
144937
144971
144900
144942
144992
145017
145094
145135
145095
145036
144978
144991
145002
145024
144978
145022
145130
145130
145129
145077
145041
145027
145040
144996
144992
145067
145112
145202
145245
145219
145239
145224
145157
145135
145108
145074
145030
145054
145191
145280
145207
145136
145213
145257
145110
145040
145041
145102
145190
145289
145284
145233
145254
145246
145239
145271
145314
145283
145298
145221
145306
145334
145305
145227
145129
145143
145205
145341
145450
145515
145514
145463
145452
145503
145443
145432
145413
145394
145468
145424
145453
145464
145380
145388
145438
145417
145393
145262
145281
145355
145452
145354
145236
145290
145372
145467
145395
145234
145333
145395
145340
145224
145223
145132
145176
145167
145265
145332
145354
145316
145354
145318
145275
145171
145229
145159
145349
145397
145231
145120
145118
145121
145196
145193
145207
145247
145194
145183
145320
145310
145297
145230
145141
145125
145207
145252
145235
145260
145262
145275
145330
145407
145378
145388
145320
145289
145412
145268
145309
145332
145263
145280
145188
145288
145445
145443
145451
145471
145452
145449
145378
145363
145395
145391
145478
145442
145448
145356
145327
145347
145349
145479
145555
145467
145436
145391
145352
145336
145389
145368
145371
145504
145390
145409
145547
145499
145450
145380
145375
145292
145342
145474
145457
145590
145591
145527
145462
145374
145454
145475
145376
145370
145420
145429
145448
145440
145402
145455
145547
145565
145555
145519
145513
145510
145415
145350
145449
145488
145524
145600
145506
145568
145435
145481
145477
145556
145615
145602
145526
145488
145454
145557
145632
145664
145661
145578
145512
145512
145615
145708
145749
145715
145645
145671
145631
145609
145544
145509
145567
145569
145607
145656
145610
145641
145651
145710
145713
145747
145713
145733
145680
145710
145613
145674
145796
145802
145811
145868
145850
145758
145678
145676
145656
145686
145819
145864
145861
145804
145663
145691
145747
145696
145575
145535
145603
145687
145784
145808
145882
145852
145838
145840
145784
145743
145701
145725
145783
145748
145802
145866
145869
145903
145800
145711
145711
145775
145795
145894
145976
145882
145856
145823
145745
145868
145909
145895
145823
145785
145792
145749
145777
145838
145764
145760
145877
145850
146002
145995
145925
145896
145919
145821
145828
145904
145960
145869
145844
145989
146072
145924
145939
145894
145950
145867
145878
145933
145918
146011
146020
146056
145973
145919
145903
145952
145966
146008
146084
146112
146027
145981
145987
145998
145937
145941
145995
145991
146058
146029
146030
146022
146039
146026
145960
145841
145937
146007
146078
146064
146092
146100
146076
146056
146058
146048
146089
146204
146179
146130
146094
146133
146153
146141
146156
146092
146022
146176
146211
146037
146105
146105
146034
146076
146151
146237
146269
146115
146079
146103
146040
146058
146132
146219
146211
146295
146162
146151
146198
146168
146060
145989
146052
146208
146214
146245
146232
146154
146306
146232
146138
146166
146150
146156
146044
146022
146012
146056
146211
146301
146426
146462
146467
146452
146441
146477
146497
146548
146568
146428
146373
146233
146208
146265
146267
146146
146034
145927
145832
145788
145811
145790
145806
145819
145829
145909
145874
145915
146046
146056
146133
146093
146211
146360
146358
146270
146265
146236
146258
146236
146216
146217
146319
146401
146372
146354
146324
146429
146437
146300
146368
146327
146250
146321
146374
146426
146427
146494
146473
146374
146332
146338
146426
146493
146501
146578
146356
146269
146263
146242
146255
146364
146463
146507
146596
146552
146529
146528
146436
146485
146476
146390
146339
146399
146376
146460
146471
146382
146341
146437
146519
146626
146631
146610
146625
146484
146398
146490
146533
146506
146619
146546
146545
146563
146465
146555
146476
146461
146514
146506
146546
146588
146646
146625
146565
146653
146698
146671
146617
146619
146731
146714
146635
146587
146619
146593
146617
146688
146743
146667
146737
146701
146685
146627
146592
146612
146702
146760
146746
146532
146606
146658
146645
146649
146676
146705
146739
146639
146540
146480
146547
146623
146654
146730
146723
146689
146680
146694
146706
146687
146661
146631
146586
146632
146608
146527
146446
146462
146524
146596
146621
146598
146670
146628
146540
146489
146448
146521
146536
146503
146552
146621
146577
146516
146467
146380
146373
146394
146615
146707
146739
146651
146699
146644
146569
146477
146508
146487
146542
146589
146853
146874
146751
146636
146554
146582
146626
146609
146571
146570
146704
146771
146818
146832
146758
146719
146696
146674
146671
146680
146721
146569
146656
146716
146646
146632
146605
146620
146643
146657
146743
146783
146820
146820
146785
146801
146751
146691
146616
146556
146656
146743
146855
146831
146744
146756
146730
146649
146714
146859
146864
146711
146725
146780
146712
146752
146792
146845
146773
146718
146719
146677
146745
146844
146802
146732
146714
146690
146766
146821
146861
146859
146820
146824
146810
146743
146730
146822
146849
146795
146831
146822
146834
146813
146735
146719
146785
146885
146792
146773
146771
146779
146783
146802
146827
146739
146752
146845
146961
146876
146822
146775
146816
146773
146853
146938
146923
146956
146955
146854
146849
146903
146934
146892
146854
146865
146907
146877
146900
146995
147046
146914
146987
146961
146887
146854
146912
147027
146932
146850
146812
146799
146827
147099
147079
146978
146977
146906
147015
146940
146892
146975
146926
146834
146691
146769
146901
147004
147137
147123
147163
147034
146921
146914
146926
146898
146925
146950
146961
146868
146906
146962
146933
146943
146786
146835
146947
147098
147080
146950
146876
146780
146794
146806
146840
146990
147010
146971
147030
146986
146899
146900
146952
146992
146904
146902
146950
147036
147048
146880
146938
147068
147096
146963
146948
146974
146895
146908
146930
146858
146942
146974
146927
146949
147017
147051
147076
147122
147070
147042
147028
147049
147080
147037
146884
146981
146937
147183
147241
147175
147155
146998
147010
147060
147034
147030
147033
147083
147172
147069
147087
147041
147084
147103
147049
147053
147028
147152
147102
147146
147212
147090
147039
146987
146926
146971
147065
147136
147107
147093
147134
147123
147098
147082
146993
146959
146994
146974
147020
147005
147071
147168
147115
147076
147025
146942
146965
147015
147052
146990
146935
146981
147025
147039
146990
147044
146955
146894
146970
146912
147072
147186
147197
147141
147073
147164
147230
147174
147112
147141
147190
147222
147272
147251
147338
147387
147291
147250
147316
147226
147258
147249
147126
146994
146915
146871
146788
146834
146714
146665
146700
146615
146615
146637
146735
146837
146879
146906
147031
147173
147208
147076
147010
146996
147051
147148
147044
146957
146901
146854
146968
147153
147260
147314
147208
147160
147183
147187
147255
147244
147175
147168
147086
147052
147012
147087
147133
147137
147105
147209
147246
147244
147251
147334
147233
147229
147191
147140
147145
147181
147221
147214
147169
147261
147259
147233
147252
147241
147269
147206
147233
147220
147199
147247
147206
147129
147092
147117
147038
147056
147221
147263
147331
147293
147271
147306
147359
147351
147290
147233
147125
147094
147112
147162
147258
147274
147254
147256
147200
147168
147163
147300
147274
147232
147339
147355
147320
147354
147323
147318
147363
147404
147378
147404
147341
147341
147322
147343
147390
147462
147506
147441
147464
147478
147454
147384
147386
147394
147456
147446
147512
147600
147543
147464
147421
147369
147378
147327
147337
147370
147313
147335
147262
147286
147317
147221
147211
147334
147440
147431
147370
147284
147239
147180
147173
147241
147253
147330
147527
147404
147217
147121
147156
147162
147135
147226
147207
147187
147147
147058
147154
147156
147033
147080
147140
147231
147284
147248
147154
147066
147119
147158
147070
147127
147151
147209
147259
147361
147393
147182
147107
147143
147225
147295
147223
147231
147288
147247
147225
147146
147216
147297
147277
147373
147328
147282
147274
147344
147378
147239
147214
147221
147257
147282
147312
147339
147390
147270
147182
147275
147330
147308
147275
147243
147316
147409
147338
147249
147295
147284
147231
147274
147259
147248
147235
147184
147245
147209
147212
147283
147450
147359
147286
147307
147270
147245
147274
147297
147286
147280
147241
147244
147235
147241
147175
147268
147371
147429
147318
147195
147167
147187
147128
147172
147214
147213
147159
147174
147206
147260
147284
147337
147350
147423
147296
147224
147190
147099
147324
147266
147313
147371
147355
147348
147345
147282
147243
147287
147400
147513
147611
147505
147470
147392
147321
147228
147140
147138
147320
147508
147676
147532
147413
147468
147521
147484
147443
147454
147468
147447
147486
147512
147443
147421
147364
147511
147544
147512
147589
147548
147534
147470
147426
147444
147358
147438
147522
147454
147488
147513
147577
147555
147521
147520
147514
147457
147395
147335
147409
147534
147647
147531
147446
147436
147518
147606
147581
147474
147445
147512
147421
147421
147411
147342
147330
147498
147699
147688
147446
147373
147573
147560
147518
147502
147458
147492
147551
147495
147420
147356
147462
147627
147627
147514
147437
147448
147458
147440
147476
147588
147732
147705
147595
147569
147476
147425
147437
147542
147625
147693
147722
147706
147603
147553
147588
147701
147686
147823
147682
147580
147627
147638
147705
147717
147761
147667
147694
147600
147585
147543
147546
147547
147564
147578
147629
147643
147651
147635
147710
147652
147631
147683
147625
147536
147527
147489
147525
147533
147543
147632
147744
147750
147637
147632
147573
147614
147623
147566
147584
147470
147712
147684
147563
147630
147624
147697
147667
147649
147575
147546
147646
147638
147725
147643
147655
147745
147849
147813
147833
147754
147771
148016
148081
148004
147893
147862
147733
147626
147580
147526
147528
147533
147404
147320
147296
147266
147232
147260
147294
147290
147335
147436
147369
147357
147473
147583
147666
147632
147674
147735
147758
147683
147674
147584
147465
147547
147750
147744
147746
147637
147772
147799
147760
147728
147703
147724
147764
147748
147790
147780
147777
147847
147748
147682
147808
147914
147977
147873
147760
147738
147759
147780
147800
147760
147737
147775
147767
147879
147904
147777
147789
147811
147870
147901
147816
147786
147783
147742
147800
147824
147853
147889
147921
147891
147823
147853
147827
147885
147907
147884
147928
147910
147912
147921
147966
147994
147953
148018
147985
147842
147834
147849
147886
147960
147994
148002
148104
148050
148030
147963
147961
147970
147976
147989
147883
147950
148087
148132
148166
148104
148057
147942
147963
147997
147909
147926
147993
148058
147993
148001
148145
148257
148149
148016
147995
148077
148111
148054
148022
147948
147945
147898
148013
148215
148097
148070
148044
147978
148021
147930
147960
147962
148013
148113
148033
147934
147930
148028
148018
147898
147919
147907
147974
147952
147993
148175
147974
147867
147883
147878
147996
148104
148053
148086
147961
147804
147798
147903
148023
147964
148009
148003
148006
147980
147939
147938
147823
147870
147964
148019
148087
148072
148053
147965
147893
147856
147853
147906
147910
147911
147917
148020
147993
147918
147786
147947
148031
147943
147984
147991
147950
147908
147861
147838
147798
147856
147947
147969
147965
147960
147894
147915
147885
147840
148063
148100
148013
147932
147907
147725
147659
147750
147925
148090
148089
148009
147945
147907
147949
147902
147932
148016
148025
148081
148021
147897
147889
147903
147968
147965
147968
147885
147833
147868
147883
147889
147900
147920
147964
147905
147817
147820
147866
147931
147829
147791
147845
147869
147839
147903
147989
147865
147852
147855
147810
147830
147856
147829
147876
147911
147944
147905
147900
147820
147758
147803
147863
147946
147933
147852
147911
147796
147807
147791
147740
147807
147742
147625
147746
147829
147910
147808
147766
147880
147927
147869
147914
147829
147774
147846
147791
147777
147848
147838
147845
147888
147850
147798
147842
147862
147732
147691
147695
147783
147961
147982
147905
147909
147840
147791
147707
147736
147691
147684
147640
147716
147885
148025
148014
147875
147844
147797
147728
147836
147853
147813
147839
147758
147762
147789
147820
147829
147781
147797
147762
147835
147885
147797
147710
147680
147672
147633
147686
147773
147713
147672
147656
147702
147651
147604
147765
147780
147708
147704
147694
147772
147696
147739
147794
147749
147794
147720
147629
147564
147556
147552
147580
147555
147678
147780
147793
147671
147607
147571
147575
147635
147631
147589
147641
147591
147593
147509
147521
147653
147494
147492
147544
147590
147695
147649
147648
147618
147531
147480
147444
147550
147753
147757
147667
147616
147570
147514
147535
147531
147564
147573
147481
147543
147624
147660
147682
147563
147555
147554
147468
147464
147413
147406
147427
147422
147330
147280
147493
147513
147551
147495
147475
147493
147446
147355
147429
147443
147410
147258
147346
147444
147496
147488
147397
147310
147308
147337
147338
147328
147356
147410
147451
147419
147305
147369
147433
147424
147357
147449
147430
147439
147443
147481
147487
147449
147434
147541
147651
147559
147412
147461
147334
147339
147350
147191
147128
146995
146891
146790
146740
146802
146773
146792
146889
146894
146929
146893
146926
146961
146928
146970
146931
147061
147189
147090
147168
147152
147125
147136
147115
147118
147049
147010
147052
147139
147158
147088
147077
147053
147099
147131
147096
147053
147172
147142
147102
147085
147146
147126
147060
146885
146852
146952
147096
147093
147052
146975
147054
147025
147017
147093
147116
147081
147093
147120
147012
146939
146896
146985
146968
147013
147046
147053
147102
146997
146896
146835
146838
146885
146953
146897
146870
146923
147013
147019
146996
146961
146941
146874
146872
146906
146953
147015
146938
146884
146913
146877
146926
146915
146819
146845
146864
146979
146912
146891
146973
147012
146903
146847
146818
146918
147059
146986
146971
146778
146819
146815
146810
146868
146797
146830
146788
146724
146868
146867
146806
146814
146814
146905
146896
146832
146735
146690
146695
146722
146783
146788
146896
146789
146672
146663
146690
146755
146804
146765
146704
146710
146633
146677
146643
146509
146474
146514
146569
146610
146549
146580
146590
146669
146574
146559
146520
146557
146493
146385
146446
146569
146532
146532
146439
146442
146455
146525
146555
146455
146488
146488
146546
146522
146394
146387
146368
146367
146455
146459
146446
146312
146275
146444
146446
146452
146465
146463
146348
146345
146428
146443
146402
146348
146303
146336
146326
146316
146410
146371
146421
146439
146361
146393
146355
146372
146354
146335
146321
146334
146298
146342
146401
146286
146305
146329
146339
146331
146305
146289
146316
146316
146254
146213
146230
146325
146323
146355
146226
146198
146322
146235
146206
146235
146204
146258
146236
146352
146370
146322
146276
146287
146302
146300
146266
146164
146095
146135
146142
146183
146320
146311
146247
146239
146146
146084
146147
146183
146210
146161
146196
146224
146167
146105
146108
146179
146188
146186
146156
146048
146045
146043
146100
146104
146151
146143
146128
146124
146074
146155
146238
146124
146150
146169
146143
146114
146038
146058
146075
146128
146157
146214
146125
146061
145956
145952
146091
146135
146160
146129
146134
146053
146086
146102
146102
146058
146049
146050
146096
146051
146082
146095
145983
146067
145996
145963
145923
146017
146060
146031
146119
146117
146038
145964
146002
145988
145927
145941
145924
145991
146019
145999
145929
145947
145943
145961
146041
146034
145854
145753
145876
145935
145931
145920
145954
145988
145937
145922
145837
145797
145949
146025
145861
145889
145851
145894
145826
145714
145763
145874
146009
145919
145896
145863
145876
145914
145864
145821
145727
145763
145789
145873
145861
145863
145907
145967
145942
145936
145833
145821
145858
145885
145877
145806
145715
145820
145878
145799
145827
145862
145844
145815
145734
145648
145703
145867
145939
145955
145965
145857
145847
145789
145815
145824
145804
145815
145823
145879
145892
145792
145781
145816
145801
145838
145882
145923
145779
145663
145658
145623
145734
145888
145854
145870
145829
145800
145743
145745
145807
145827
145802
145805
145674
145717
145697
145719
145725
145687
145690
145705
145758
145739
145768
145716
145708
145774
145707
145625
145676
145705
145741
145760
145811
145735
145701
145696
145754
145683
145667
145585
145627
145743
145753
145825
145851
145830
145771
145794
145771
145746
145709
145813
145925
145988
146092
146089
146022
145991
146007
146009
145887
145774
145714
145667
145630
145554
145434
145426
145444
145341
145307
145287
145288
145233
145373
145527
145541
145605
145601
145512
145445
145519
145608
145580
145608
145753
145825
145734
145655
145667
145692
145718
145763
145753
145730
145791
145749
145766
145686
145671
145708
145707
145687
145700
145704
145684
145610
145754
145861
145789
145666
145618
145571
145736
145932
145883
145864
145811
145754
145708
145754
145762
145826
145796
145758
145673
145724
145743
145883
145911
145836
145853
145803
145821
145818
145830
145811
145705
145634
145599
145724
145885
145931
145995
145940
145854
145818
145808
145775
145732
145762
145818
145729
145757
145774
145713
145705
145730
145779
145840
145884
145934
145838
145833
145808
145815
145887
145825
145864
145885
145881
145914
145870
145909
145872
145807
145764
145821
145964
146024
146005
145919
145840
145815
145854
145949
145980
145983
145955
145865
145843
145905
145845
145790
145928
145985
145924
145928
145875
145753
145757
145772
145846
145836
145776
145877
145845
145885
145900
145877
145873
145887
145847
145860
145772
145705
145702
145775
145852
145839
145827
145823
145718
145697
145640
145632
145607
145691
145797
145829
145777
145704
145727
145750
145762
145732
145803
145735
145680
145574
145630
145692
145731
145764
145630
145732
145811
145818
145816
145726
145647
145719
145708
145748
145765
145698
145614
145707
145785
145706
145700
145710
145769
145870
145829
145857
145893
145803
145747
145716
145798
145739
145746
145851
145909
145838
145796
145775
145771
145747
145700
145701
145691
145837
145828
145824
145900
145855
145852
145818
145878
145964
145917
145812
145802
145924
145878
145777
145758
145798
145830
145852
145891
145952
145906
145910
145851
145845
145809
145791
145762
145720
145697
145839
145824
145912
145974
145886
145920
145868
145912
145904
145834
145772
145706
145729
145828
145920
145887
145820
145960
145994
145883
145799
145767
145815
145923
146025
145994
145936
145867
145817
145798
145824
145902
145943
146043
145984
145975
145917
145907
145861
145820
145870
145861
145947
146005
145972
145912
145959
145937
145957
146011
146054
146045
145890
145876
145925
145883
145897
145963
145974
145959
146019
145976
145989
146061
146040
146060
145986
145978
146044
145975
146007
145849
145938
145928
145918
145933
145959
145950
145980
146005
145992
146046
145980
145946
145879
145934
145758
145794
145872
145935
145986
146076
146082
146092
146060
145994
145906
146010
146065
145980
145936
145843
145923
146018
145998
145967
145932
145971
145981
145964
145868
145878
146013
146141
146187
146151
145989
146048
146015
145973
145977
145885
145925
145961
146013
146025
146051
146088
145991
146059
146049
146053
146105
146054
145959
146047
145988
146084
146086
146060
146001
145924
146042
146137
146157
146225
146208
146167
146098
146105
146085
146095
146111
146065
146046
146050
146190
146253
146213
146100
146061
146093
146092
146092
146079
146066
146069
146117
146071
146105
146172
146199
146249
146297
146106
146005
146038
146030
146097
146033
146111
146140
146152
146112
146103
146096
146078
146086
146165
146119
146054
146042
145977
146083
146226
146221
146195
146232
146157
146121
146065
145993
145987
146069
146142
146117
146132
146227
146285
146196
146136
146092
146121
146148
146170
146178
146174
146187
146279
146382
146451
146477
146459
146359
146297
146306
146327
146301
146407
146486
146369
146208
146063
145988
145931
145902
145763
145749
145887
145775
145762
145716
145840
145941
145980
145977
145980
146016
146044
146047
146009
146004
146069
146049
146115
146185
146282
146296
146293
146255
146316
146179
146141
146266
146212
146285
146324
146296
146275
146232
146201
146192
146180
146118
146202
146293
146267
146330
146328
146326
146252
146178
146176
146204
146223
146154
146271
146393
146424
146376
146346
146361
146371
146334
146306
146332
146293
146200
146273
146400
146526
146430
146364
146404
146361
146324
146298
146338
146384
146347
146348
146452
146515
146494
146389
146429
146433
146402
146417
146470
146521
146446
146428
146434
146430
146433
146485
146532
146520
146464
146481
146467
146595
146614
146534
146504
146532
146558
146584
146553
146636
146621
146630
146621
146674
146695
146613
146649
146570
146417
146421
146502
146619
146658
146748
146710
146537
146559
146722
146670
146722
146800
146721
146600
146511
146496
146577
146658
146635
146672
146580
146537
146533
146572
146518
146421
146401
146506
146602
146658
146729
146577
146559
146524
146482
146471
146553
146587
146656
146529
146389
146363
146510
146732
146727
146620
146501
146572
146615
146560
146500
146445
146471
146514
146538
146475
146378
146325
146441
146388
146449
146553
146561
146608
146550
146497
146537
146676
146639
146591
146561
146506
146446
146461
146553
146797
146756
146655
146577
146571
146584
146513
146536
146695
146863
146872
146653
146599
146616
146671
146639
146488
146524
146555
146588
146631
146584
146573
146513
146599
146700
146700
146630
146574
146575
146635
146784
146685
146729
146746
146704
146684
146670
146730
146652
146704
146742
146841
146755
146698
146730
146734
146733
146685
146685
146750
146716
146694
146603
146571
146631
146752
146816
146732
146794
146729
146645
146612
146649
146633
146659
146668
146724
146812
146801
146699
146653
146717
146707
146713
146812
146779
146674
146695
146708
146759
146727
146679
146675
146694
146743
146726
146745
146759
146794
146814
146755
146740
146750
146790
146783
146728
146742
146880
146860
146835
146829
146710
146786
146755
146816
146813
146846
146809
146820
146823
146839
146966
147006
147015
146884
146841
146743
146729
146702
146876
146812
146786
146851
146804
146847
146809
146800
146862
146992
146954
146919
146961
146971
146956
146922
146837
146880
146951
146846
146792
146796
146863
146873
146956
147125
147009
146818
146844
146898
146885
146917
146913
146881
146990
146964
146874
146840
146829
146814
146912
146855
146893
146878
146852
146895
146895
146926
146978
146916
146878
146790
146802
146826
146874
146929
147030
147028
146831
146779
146936
146861
146889
146880
146883
146870
146862
146917
146924
146969
146998
147062
147050
146884
146793
146860
146919
147057
147027
146957
146875
146848
146906
146983
147010
147013
147042
147000
146915
147038
146993
146910
146962
147037
147070
147052
147006
146978
147022
146912
146826
146957
147053
147022
147048
147087
147091
147162
147132
147013
147047
147040
146961
146970
147008
147096
147160
147150
147138
147078
147069
147019
147109
147153
147110
147121
147060
147024
147050
147042
147064
147061
146988
147007
147155
147176
147057
147097
147103
147026
146908
146771
146843
147089
147323
147270
147251
147255
147217
147134
147030
146938
147014
147056
147086
147087
147145
147204
147134
147071
147138
147080
147041
147196
147228
147183
147139
147105
147061
147120
147241
147196
147153
147223
147167
147202
147205
147274
147441
147351
147290
147323
147411
147386
147338
147389
147307
147142
147130
147097
147126
146996
146998
146898
146879
146777
146615
146642
146602
146660
146813
146807
146836
146950
147044
146955
146944
147119
147048
147099
147156
147075
147173
147180
147201
147123
147084
147213
147192
147203
147254
147258
147253
147195
147094
147096
147187
147241
147211
147167
147206
147240
147334
147315
147306
147315
147331
147324
147241
147219
147180
147166
147238
147330
147374
147432
147316
147334
147296
147235
147266
147293
147229
147204
147217
147252
147441
147456
147382
147382
147341
147255
147226
147246
147306
147252
147301
147325
147354
147340
147476
147420
147260
147229
147302
147385
147393
147416
147452
147405
147395
147307
147275
147333
147276
147248
147208
147341
147532
147521
147502
147385
147405
147399
147344
147359
147453
147507
147481
147473
147396
147360
147440
147524
147543
147503
147453
147445
147434
147326
147528
147533
147494
147498
147455
147472
147469
147366
147392
147531
147477
147523
147464
147301
147439
147514
147363
147377
147468
147500
147383
147319
147394
147526
147606
147622
147514
147506
147550
147410
147245
147291
147299
147221
147337
147458
147395
147391
147391
147292
147254
147192
147265
147377
147419
147404
147319
147282
147388
147368
147278
147232
147280
147368
147423
147406
147372
147303
147225
147238
147382
147427
147453
147398
147351
147286
147289
147230
147295
147399
147361
147416
147400
147384
147390
147340
147283
147263
147301
147368
147328
147259
147298
147375
147453
147529
147440
147392
147282
147316
147399
147386
147469
147462
147320
147285
147202
147320
147415
147538
147525
147520
147536
147530
147443
147471
147483
147368
147362
147364
147355
147453
147491
147478
147503
147420
147438
147362
147406
147516
147556
147447
147425
147448
147419
147396
147501
147553
147573
147708
147598
147513
147541
147444
147482
147577
147507
147541
147580
147637
147627
147612
147534
147543
147527
147461
147383
147454
147488
147674
147843
147670
147652
147668
147626
147448
147395
147458
147496
147550
147575
147568
147564
147498
147537
147593
147444
147513
147616
147680
147594
147554
147499
147560
147644
147756
147646
147579
147513
147482
147524
147582
147718
147728
147795
147743
147637
147629
147605
147588
147581
147569
147529
147645
147802
147839
147805
147653
147653
147647
147669
147668
147634
147563
147576
147677
147712
147849
147849
147778
147595
147569
147602
147522
147565
147616
147630
147698
147763
147791
147750
147680
147737
147697
147660
147663
147698
147681
147789
147870
147762
147703
147762
147725
147715
147674
147705
147680
147708
147783
147841
147737
147715
147790
147794
147695
147509
147563
147602
147769
147919
147903
147716
147670
147794
147885
147848
147848
147927
147820
147722
147617
147642
147633
147606
147594
147789
147921
147896
147919
147839
147701
147651
147708
147734
147708
147630
147715
147722
147712
147725
147822
147904
147857
147753
147753
147702
147761
147723
147773
147844
147740
147635
147622
147709
147757
147657
147678
147785
147818
147808
147727
147702
147634
147683
147744
147627
147788
147853
147800
147799
147709
147757
147923
148040
148047
147879
147852
147884
147852
147832
147798
147792
147902
147823
147760
147739
147843
147919
147882
147903
147886
147867
147840
147831
147811
147734
147835
147894
147834
147913
147862
147838
147839
147819
147874
147844
147947
147968
147905
147867
147874
147855
147750
147677
147801
147799
147911
147929
147845
147865
147881
147882
148026
148088
148044
147830
147876
147919
148018
148006
147923
147944
148005
147985
148015
147974
148020
148006
148079
148086
147968
147899
147997
147926
147789
147684
147627
147513
147577
147502
147341
147351
147436
147417
147556
147650
147593
147612
147615
147627
147603
147639
147736
147823
147885
147815
147873
147750
147676
147724
147814
147811
147895
147880
147827
147925
148068
148037
148027
148018
147892
147894
147969
147965
148029
148073
147934
147933
147903
147964
148055
148042
148085
147998
147938
147949
148037
148056
147942
147977
148024
148149
148172
148106
148029
147981
148025
147988
147956
147925
147893
148033
148228
148198
148125
148180
148099
148015
148077
148048
148068
148100
148082
148008
148064
148065
148111
148099
148143
148063
147975
148043
148127
148204
148206
148122
147984
148098
148020
148075
148114
148117
148231
148172
148155
148183
148153
148158
148169
148252
148163
148169
148206
148251
148167
148098
148161
148201
148226
148269
148253
148315
148317
148326
148370
148328
148220
148227
148207
148150
148046
148134
148280
148430
148361
148206
148275
148294
148314
148254
148171
148150
148125
148158
148243
148191
148230
148131
148172
148281
148266
148282
148276
148185
148152
148073
148093
148185
148188
148205
148184
148116
148115
148155
148227
148211
148125
148165
148110
148196
148204
148144
148166
148144
148159
148114
148138
148126
148008
147917
147992
148123
148272
148252
148214
148184
148183
148086
148068
148085
148172
148389
148363
148315
148258
148072
148014
148071
148226
148237
148191
148185
148157
148217
148194
148168
148276
148344
148264
148123
148144
148158
148140
148108
148113
148132
148221
148336
148387
148250
148176
148299
148239
148155
148167
148124
148122
148181
148197
148131
148143
148268
148362
148454
148309
148241
148296
148193
148187
148170
148203
148272
148229
148109
148136
148142
148243
148425
148364
148230
148247
148273
148269
148208
148185
148181
148156
148108
148145
148297
148272
148167
148190
148230
148245
148221
148167
148121
148278
148298
148248
148161
148157
148270
148351
148196
148142
148137
148171
148242
148203
148269
148280
148318
148336
148373
148318
148254
148187
148263
148302
148284
148241
148231
148225
148313
148329
148273
148294
148268
148221
148248
148262
148373
148462
148391
148385
148335
148265
148276
148263
148148
148152
148190
148322
148512
148523
148494
148450
148311
148270
148321
148384
148313
148221
148196
148275
148347
148338
148399
148418
148453
148403
148420
148402
148286
148226
148345
148329
148349
148396
148452
148533
148415
148358
148368
148306
148293
148331
148421
148426
148395
148401
148395
148373
148406
148545
148499
148451
148368
148302
148377
148356
148281
148319
148294
148348
148475
148514
148560
148471
148467
148472
148456
148414
148400
148476
148497
148410
148383
148375
148384
148349
148377
148473
148440
148451
148400
148372
148330
148377
148395
148464
148627
148577
148495
148398
148343
148364
148402
148422
148417
148467
148464
148445
148302
148349
148490
148583
148561
148370
148441
148590
148638
148483
148370
148408
148432
148412
148456
148434
148459
148492
148550
148461
148402
148525
148593
148567
148498
148418
148449
148496
148467
148544
148569
148513
148399
148397
148403
148583
148664
148663
148586
148594
148504
148485
148506
148576
148663
148664
148682
148674
148625
148583
148547
148561
148570
148520
148598
148635
148613
148669
148717
148735
148694
148569
148491
148534
148666
148690
148618
148637
148674
148640
148646
148595
148567
148407
148440
148441
148544
148681
148662
148591
148535
148587
148667
148713
148849
148666
148584
148511
148474
148521
148629
148712
148664
148678
148728
148574
148511
148561
148553
148647
148705
148676
148746
148744
148670
148581
148654
148723
148733
148771
148891
148850
148873
148973
149002
148888
148825
148838
148851
148738
148709
148621
148519
148490
148456
148331
148351
148381
148424
148287
148178
148151
148202
148288
148376
148369
148463
148515
148505
148619
148658
148754
148595
148606
148726
148657
148813
148804
148698
148614
148567
148606
148621
148692
148637
148706
148883
148783
148663
148693
148677
148750
148771
148854
148844
148764
148681
148660
148689
148834
148805
148822
148879
148854
148938
148895
148742
148773
148806
148797
148672
148619
148684
148693
148684
148814
148866
148845
148820
148815
148823
148853
148882
148853
148738
148722
148824
148826
148813
148851
148734
148779
148751
148808
149001
148968
148964
148950
148899
148951
148847
148809
148866
148921
148954
148826
148868
148933
148938
148856
148864
148873
148894
148935
149013
148989
148944
148852
148887
148938
148921
149045
149058
149074
149063
149020
149020
149074
148968
148895
148867
148949
149040
149034
148940
148946
149035
149035
149056
149031
148990
148998
149109
149117
148997
148911
148900
148905
148917
148928
148935
149058
149098
149059
149052
149039
148985
148933
149011
149030
148911
148937
148901
148813
148832
148800
148826
148901
148935
149017
149047
149057
149066
149059
149063
148924
148934
148956
148899
148892
148936
148965
148962
148903
149019
149018
149005
148933
148949
148924
148975
149080
149147
148974
148882
148831
148815
148783
148884
148987
149013
149042
149008
149038
149055
149001
148945
148944
148952
148853
148827
148952
149076
149142
149192
149093
149075
149006
148931
148964
148902
148842
148863
148909
148923
148969
149026
149039
149160
149147
149124
149114
149099
149036
148918
148842
148926
148979
149101
149154
149105
149030
149029
149055
149061
148956
149040
149049
149147
149129
149082
149075
149136
149146
149080
148985
148944
149012
149134
149258
149246
149252
149164
149115
149067
149022
149041
149116
149114
149119
149128
149162
149155
149231
149150
149005
148914
148915
149040
149162
149255
149241
149167
149057
148977
148933
149134
149248
149220
149259
149271
149217
149152
149094
149059
149087
149102
149077
149088
149111
149116
149117
149084
149091
149143
149127
149052
149007
149044
149111
149197
149196
149216
149193
149226
149146
149083
149005
148994
149061
149050
149226
149327
149283
149342
149266
149193
149105
149025
149167
149113
149083
149026
148991
149020
149063
149084
149104
149200
149178
149134
149286
149383
149175
149117
149094
149105
149069
149025
149128
149089
149109
149110
149134
149142
149149
149202
149237
149170
149114
149153
149180
149048
149026
149142
149224
149214
149125
149132
149097
149053
149151
149226
149148
149121
149023
149110
149157
149125
149047
149017
149093
149142
149173
149192
149066
149063
149091
149073
148997
149092
149188
149210
149260
149164
149023
149008
149153
149308
149204
149094
149185
149207
149136
149197
149187
149173
149122
149163
149148
149092
149096
149142
149119
149045
148948
148967
149012
149033
149102
149166
149314
149219
149149
149199
149156
149125
149131
149148
149219
149163
149138
149189
149245
149102
149034
149229
149245
149273
149237
149223
149176
149133
149140
149096
149001
149082
149094
149209
149340
149319
149278
149221
149086
149057
149062
149171
149357
149300
149230
149242
149329
149331
149371
149302
149211
149265
149277
149216
149305
149311
149335
149431
149322
149306
149195
149191
149209
149101
149057
149105
149315
149398
149411
149386
149286
149200
149208
149154
149149
149115
149108
149108
149114
149079
149144
149191
149151
149119
149110
149111
149084
149160
149213
149288
149144
149134
149216
149162
149220
149251
149225
149331
149220
149133
149099
149226
149229
149172
149138
149212
149279
149343
149256
149198
149222
149327
149466
149532
149513
149464
149380
149412
149509
149493
149411
149316
149314
149304
149156
149015
148981
148911
148940
148816
148703
148790
148909
148909
148795
148684
148816
148960
149102
149225
149181
149275
149254
149209
149166
149098
149082
149181
149236
149370
149340
149269
149227
149272
149230
149127
149147
149299
149402
149277
149220
149230
149167
149217
149349
149249
149329
149380
149261
149210
149138
149201
149325
149476
149309
149321
149280
149191
149275
149338
149304
149314
149377
149368
149237
149101
149269
149417
149420
149406
149361
149370
149387
149394
149277
149283
149344
149328
149343
149364
149355
149406
149414
149426
149394
149267
149208
149222
149411
149520
149578
149479
149460
149348
149307
149246
149223
149304
149404
149490
149438
149441
149492
149442
149302
149369
149445
149453
149480
149509
149399
149411
149425
149403
149372
149373
149418
149443
149430
149563
149551
149584
149562
149550
149568
149514
149486
149562
149604
149597
149508
149447
149403
149406
149393
149396
149452
149343
149378
149448
149539
149570
149522
149445
149383
149397
149466
149423
149430
149396
149404
149510
149489
149365
149389
149414
149537
149517
149469
149395
149324
149376
149406
149327
149253
149315
149280
149317
149410
149425
149428
149424
149367
149289
149180
149119
149371
149497
149602
149432
149314
149391
149426
149327
149276
149290
149350
149485
149516
149488
149401
149180
149306
149380
149459
149414
149376
149408
149283
149236
149185
149259
149364
149433
149339
149317
149465
149437
149465
149520
149448
149421
149484
149396
149298
149327
149445
149486
149527
149382
149380
149378
149336
149430
149394
149322
149383
149440
149401
149320
149352
149288
149335
149442
149375
149356
149469
149444
149369
149319
149480
149388
149281
149352
149296
149226
149357
149496
149554
149482
149425
149371
149337
149460
149444
149387
149461
149514
149424
149321
149308
149330
149234
149183
149225
149273
149399
149441
149549
149583
149551
149494
149388
149465
149368
149241
149179
149211
149275
149458
149518
149510
149547
149477
149431
149357
149399
149426
149370
149383
149417
149391
149423
149427
149360
149381
149395
149416
149450
149402
149386
149405
149430
149523
149481
149339
149284
149162
149295
149300
149426
149447
149425
149504
149550
149543
149483
149484
149473
149469
149370
149347
149439
149484
149525
149535
149514
149486
149450
149398
149477
149550
149526
149484
149371
149335
149408
149383
149358
149359
149349
149490
149569
149545
149592
149511
149460
149453
149384
149378
149395
149437
149489
149493
149475
149459
149488
149456
149533
149536
149479
149409
149447
149384
149454
149505
149451
149424
149444
149415
149424
149480
149458
149462
149499
149459
149440
149404
149359
149469
149403
149378
149452
149682
149692
149558
149479
149471
149478
149460
149421
149381
149365
149402
149544
149564
149524
149426
149500
149501
149407
149489
149577
149528
149560
149509
149448
149450
149534
149542
149566
149599
149553
149525
149482
149399
149462
149603
149711
149622
149587
149565
149479
149607
149599
149598
149613
149487
149420
149447
149411
149504
149598
149791
149715
149626
149604
149556
149543
149592
149568
149559
149547
149562
149588
149547
149508
149433
149394
149493
149560
149576
149648
149661
149603
149439
149370
149374
149378
149365
149502
149599
149637
149572
149364
149323
149471
149623
149674
149636
149580
149536
149420
149365
149372
149331
149361
149509
149568
149541
149516
149477
149483
149533
149546
149541
149652
149675
149701
149749
149752
149718
149702
149609
149587
149531
149537
149619
149643
149583
149327
149252
149289
149215
149093
149044
149044
149077
149110
149092
149078
149114
149078
149172
149271
149334
149451
149551
149495
149396
149298
149343
149349
149288
149262
149314
149476
149553
149582
149455
149364
149453
149549
149519
149451
149398
149414
149513
149572
149573
149373
149404
149510
149543
149534
149403
149350
149512
149514
149488
149481
149524
149524
149598
149566
149538
149649
149663
149530
149506
149424
149471
149427
149402
149487
149476
149442
149417
149447
149415
149419
149544
149588
149633
149631
149531
149459
149465
149595
149580
149473
149504
149535
149484
149438
149478
149534
149606
149540
149540
149542
149591
149661
149701
149607
149562
149549
149531
149545
149587
149599
149683
149607
149545
149644
149620
149664
149616
149636
149634
149579
149520
149535
149603
149643
149633
149600
149630
149610
149562
149522
149564
149687
149814
149709
149560
149607
149625
149659
149599
149535
149552
149557
149554
149575
149550
149637
149682
149575
149576
149534
149519
149510
149502
149497
149608
149603
149654
149652
149554
149447
149372
149405
149461
149541
149514
149416
149389
149415
149440
149377
149428
149456
149597
149554
149368
149406
149409
149294
149252
149303
149383
149618
149647
149551
149427
149502
149591
149537
149371
149263
149278
149262
149237
149375
149379
149451
149481
149489
149552
149529
149438
149435
149526
149479
149472
149412
149396
149361
149369
149291
149298
149439
149423
149503
149497
149424
149496
149539
149480
149414
149396
149387
149364
149362
149377
149421
149464
149418
149515
149507
149509
149441
149496
149467
149417
149344
149321
149359
149479
149528
149533
149489
149447
149354
149370
149392
149373
149423
149411
149403
149385
149372
149361
149444
149457
149434
149454
149447
149416
149428
149336
149340
149380
149391
149439
149645
149585
149378
149261
149163
149248
149464
149553
149546
149548
149540
149463
149435
149392
149295
149283
149388
149452
149448
149389
149453
149550
149473
149397
149305
149336
149323
149354
149337
149288
149266
149327
149414
149404
149332
149351
149434
149471
149457
149307
149220
149251
149326
149364
149314
149356
149388
149390
149348
149322
149381
149423
149356
149447
149413
149351
149368
149365
149333
149266
149310
149434
149412
149411
149393
149369
149393
149390
149292
149206
149184
149278
149421
149386
149455
149457
149403
149331
149313
149275
149434
149437
149400
149301
149279
149288
149314
149305
149314
149310
149220
149329
149350
149461
149488
149427
149364
149339
149266
149200
149282
149274
149115
149103
149079
149249
149371
149388
149385
149344
149321
149302
149278
149290
149226
149206
149306
149263
149186
149184
149170
149218
149241
149277
149283
149246
149191
149182
149300
149394
149452
149139
149041
149063
149126
149153
149243
149266
149181
149101
149078
149127
149164
149267
149179
149115
149080
149057
149052
149210
149353
149289
149205
149190
149171
149133
149089
149088
149123
149212
149273
149321
149304
149252
149236
149227
149216
149179
149061
148996
149057
149165
149216
149183
149030
149013
149035
149119
149223
149315
149345
149235
149126
149093
149044
149046
149198
149221
149293
149254
149237
149155
149142
149127
149063
149196
149238
149175
149158
149146
149097
149040
149002
149023
149168
149204
149195
149144
149133
149085
149026
149012
148811
148902
148955
148969
149190
149289
149172
149051
149044
149059
149014
148935
148865
148894
148960
148989
149022
149012
149034
149011
148987
149006
148979
148998
148885
148849
148714
148780
148923
149093
149228
149227
149047
149046
149130
149164
149104
149101
149124
149091
149124
149122
149133
149189
149098
149049
149031
148928
148744
148635
148459
148428
148393
148411
148496
148525
148506
148501
148402
148539
148620
148649
148711
148721
148764
148808
148698
148745
148791
148749
148767
148713
148775
148777
148739
148756
148738
148718
148654
148650
148788
148873
148720
148728
148783
148826
148777
148718
148621
148711
148748
148700
148681
148765
148848
148804
148744
148652
148648
148824
148874
148834
148731
148712
148689
148578
148579
148670
148641
148666
148708
148734
148684
148725
148692
148601
148663
148659
148658
148628
148573
148648
148729
148721
148823
148731
148667
148554
148556
148601
148618
148640
148569
148629
148762
148737
148744
148693
148600
148565
148593
148529
148457
148475
148607
148723
148760
148748
148693
148610
148617
148572
148417
148441
148540
148716
148836
148750
148590
148503
148509
148608
148560
148556
148584
148567
148512
148458
148505
148475
148473
148524
148524
148631
148535
148541
148472
148462
148499
148396
148408
148416
148478
148438
148310
148345
148389
148437
148427
148399
148334
148338
148278
148299
148232
148203
148215
148244
148383
148306
148241
148266
148310
148318
148181
148145
148136
148241
148200
148108
148202
148308
148221
148221
148226
148220
148186
148160
148142
148232
148317
148223
148096
148004
148035
148102
148087
148011
148102
148110
148163
148171
148166
148143
148096
148070
148072
148016
148045
148108
148195
148135
148046
148042
148095
148076
148032
147979
147878
148024
148198
148210
148151
148038
147972
147979
148036
147943
147914
147950
147961
148004
148022
148096
148009
147930
148001
148004
147960
147930
147977
148022
147969
147902
147863
147809
147818
147778
147810
148058
148167
148161
148050
147925
147911
147915
147875
147852
147790
147829
147913
147870
147785
147857
147856
147886
147904
147872
147966
147839
147773
147756
147670
147713
147778
147927
147925
147889
147884
147843
147860
147927
147888
147721
147648
147602
147696
147726
147855
147811
147782
147781
147757
147838
147804
147750
147763
147745
147734
147685
147704
147642
147659
147715
147704
147616
147584
147540
147605
147687
147757
147815
147745
147696
147678
147685
147629
147582
147617
147620
147642
147626
147560
147511
147495
147623
147642
147580
147606
147656
147647
147590
147552
147592
147595
147603
147498
147424
147424
147573
147558
147553
147513
147504
147540
147505
147465
147495
147487
147527
147569
147460
147340
147338
147415
147527
147531
147426
147474
147402
147424
147548
147502
147402
147434
147499
147407
147436
147382
147342
147265
147252
147417
147491
147519
147474
147403
147347
147387
147413
147399
147358
147267
147189
147198
147365
147474
147424
147399
147355
147351
147347
147222
147270
147329
147357
147406
147378
147392
147299
147226
147244
147216
147155
147205
147283
147322
147274
147324
147386
147357
147379
147333
147252
147213
147189
147117
147150
147230
147198
147245
147272
147165
147238
147353
147346
147202
147042
147160
147248
147271
147249
147229
147170
147171
147159
147252
147363
147356
147316
147303
147231
147019
147040
147111
147299
147360
147293
147288
147341
147277
147226
147220
147280
147238
147238
147139
147148
147292
147371
147428
147242
147118
147223
147214
147187
147210
147189
147127
147100
147026
147108
147140
147212
147229
147223
147194
147126
147039
146972
146996
147280
147386
147304
147205
147173
147101
147074
147065
147119
147069
147046
147108
147097
147068
147118
147160
147060
147092
147078
147178
147170
147166
147238
147186
147095
147094
147036
147056
147088
147098
147033
147153
147198
147198
147296
147395
147307
147282
147394
147351
147316
147326
147240
147190
147106
147082
147109
146946
146850
146642
146586
146452
146537
146720
146795
146622
146532
146758
146895
146855
146841
146804
146874
146875
146818
146962
146941
146928
146996
147043
147043
147004
146945
146895
146998
146983
146977
147046
146977
147021
147064
147036
147047
147062
147056
147018
146919
146874
146892
147003
147014
147031
147050
147043
146996
146977
146986
146958
146919
146968
147044
146994
147021
147031
146968
146872
146819
146945
147147
147116
147005
146944
147024
146956
146947
147005
147039
147003
147007
147098
147180
147115
147047
147058
147039
147056
146965
146943
146970
147039
146977
147005
147033
146952
147001
146939
146996
147048
147101
147140
147231
147082
147027
147002
146990
147033
147078
147115
147148
147116
147114
147030
146903
146930
147198
147279
147217
147208
147197
147106
147132
147090
147075
146999
146845
146871
146947
147174
147228
147111
147053
146984
146965
147013
147096
147090
147020
146960
146945
147035
147090
147094
147037
147005
147076
147084
146924
146912
147004
147012
146997
147004
146933
146981
146984
146902
146956
147011
146970
146990
147045
146988
146976
146942
146798
146704
146821
146791
146839
146909
146912
147032
146929
146956
146930
146951
147011
146998
146971
146921
146899
146841
146753
146754
146852
146970
146992
146919
146936
146937
147021
146922
146867
146905
146994
146969
146928
147002
147061
146767
146693
146767
146888
147031
146983
146858
146761
146814
146985
147044
147039
146960
146885
146793
146821
146842
146869
146916
146904
146923
146878
146835
146921
146938
146994
147025
147009
146987
146968
146939
146865
146757
146726
146782
146908
147041
146940
146900
146840
146904
146973
147025
147039
147011
146939
146791
146818
146916
146925
146995
146942
146961
146942
147025
147064
146958
146917
146977
147067
146935
146867
146810
146867
146897
146903
146945
147054
146970
146984
147041
147017
146940
146916
146955
146944
146921
146866
146865
146857
146932
146930
146787
146915
146993
146964
147011
146896
146890
146798
146816
146810
146870
147019
147035
147015
147011
147041
146906
146823
146762
146811
146844
146855
146920
146951
146970
146928
146918
146975
146946
146970
146983
146916
146812
146790
146899
146961
146992
146878
146816
146800
146871
146903
146994
147029
147017
146892
146809
146872
146923
146875
146955
146889
146900
146928
146944
146913
147023
146960
146941
146936
146845
146982
147032
146935
146889
146765
146811
146930
146999
146975
147063
147078
146999
146981
146976
147109
147039
146958
146804
146773
146793
146891
146978
146949
146907
146934
146927
146919
146928
146995
147060
147006
146848
146747
146841
146794
146728
146781
146914
146944
146991
146990
146974
146917
146882
146857
146949
147026
147020
146930
146942
146987
147021
146974
146892
146903
146893
146894
146887
146908
146826
146857
146926
146925
146930
146927
147006
146984
146919
146916
146934
146912
146842
146875
146944
146962
146951
146885
146907
146965
147030
147033
146961
146864
146884
147002
146936
146977
147008
146957
146995
146969
146941
146920
146871
146792
146829
146859
146837
146804
146768
146787
146814
146818
146889
146888
147057
147041
146908
146791
146737
146829
146868
146936
147009
146944
146967
146942
146796
146825
146850
146853
146889
146934
146874
146853
146809
146748
146874
146921
146888
146896
147003
147043
147005
146945
147087
147165
147086
147070
147041
147137
147157
147125
147144
147116
147086
146968
146787
146657
146635
146617
146588
146517
146556
146592
146560
146449
146535
146572
146521
146561
146714
146855
146855
146795
146796
146826
146802
146815
146809
146872
146783
146749
146776
146848
146885
146900
146951
147024
147000
147006
146931
146996
146996
146875
146935
147007
146948
146911
146797
146788
146787
146919
147035
147086
147168
147121
147061
146952
146832
146867
146910
146970
147097
146999
147151
147095
147037
147055
146996
146918
146921
146917
146981
146990
147080
147092
147042
146947
146912
146999
147017
146972
147100
147086
147058
147092
147032
146990
146801
146725
146829
146932
147118
147136
147156
147164
147043
147059
146966
146963
147117
147181
147101
147049
147141
147111
147101
147142
147045
147046
147127
147134
147089
147016
147011
147156
147206
147130
147136
147146
147084
147064
147127
147222
147255
147180
147169
147097
147043
147148
147009
146909
146996
147100
147067
147086
147198
147218
147122
147056
147041
147018
146975
146945
147039
147117
147137
147146
147065
147039
147011
146924
146910
146955
147114
147092
147048
147034
146961
147025
146988
146959
146961
146952
146893
147006
147066
147143
147033
147008
147048
146996
147048
147035
146930
146895
146940
146951
146998
147039
146911
146801
146828
146997
147258
147202
147097
147019
146951
146881
146866
146936
147003
146903
146973
147010
146919
147074
147084
147054
146972
147064
147131
147106
147116
147010
146992
147052
146981
146989
147087
147026
146912
146933
147082
147020
147063
147159
147111
147073
147022
146937
146914
146940
146938
146980
147050
147096
147140
146991
147044
147011
147059
147030
147043
147021
147129
147100
146990
146970
146993
147010
146984
146991
147006
147035
147053
147085
146996
147085
147094
147065
147054
147068
147020
147009
147004
147041
147052
146993
147094
147109
147118
147041
147010
146901
147012
147124
147171
147317
147240
147178
147086
147000
147041
147040
147023
147002
147133
147228
147135
147061
147063
147043
147052
147086
147189
147199
147145
147007
146947
146895
146995
147021
147069
147164
147219
147109
147122
147123
147135
147108
147070
146956
146993
146989
147096
147228
147170
147056
147113
147048
147089
147101
147182
147150
147091
147037
147091
147125
147076
147118
147209
147229
147174
147160
147125
147141
147157
147119
147129
147074
147077
147037
147001
146983
147003
147125
147148
147125
147057
147094
147207
147146
147179
147190
147073
147075
147067
146992
147024
146988
146954
147068
147212
147299
147313
147280
147265
147157
147139
147197
147070
147053
147065
147124
147212
147193
147142
147075
147097
147065
147031
147086
147153
147222
147229
147181
147189
147160
147093
147011
146896
147077
147249
147331
147238
147193
147126
147159
147197
147202
147092
147023
147010
147105
147107
147114
147177
147239
147248
147306
147134
146970
147029
147022
147036
147071
147188
147269
147208
147168
147127
147124
147041
147165
147214
147252
147198
147216
147315
147297
147237
147243
147278
147351
147238
147152
147231
147224
147148
147153
147223
147255
147288
147260
147219
147212
147262
147303
147264
147192
147153
147122
147105
147151
147069
147125
147202
147181
147185
147156
147223
147295
147220
147159
147061
147139
147151
147115
147113
147164
147150
147082
147043
147138
147277
147238
147279
147243
147231
147152
147120
147107
147211
147275
147237
147238
147140
147077
147086
147143
147102
147129
147185
147180
147182
147210
147180
147220
147213
147234
147308
147256
147263
147369
147356
147404
147451
147395
147390
147294
147254
147233
147320
147203
147102
146999
146913
146805
146738
146715
146838
146891
146886
146936
146877
146877
146899
146987
146956
147064
147157
147170
147154
147158
147162
147217
147135
147155
147205
147112
147076
147087
147102
147056
147136
147238
147221
147260
147235
147284
147364
147324
147347
147325
147242
147208
147169
147265
147344
147342
147365
147380
147351
147359
147337
147311
147227
147267
147290
147200
147186
147218
147334
147391
147276
147303
147230
147152
147212
147264
147284
147280
147277
147318
147383
147346
147323
147271
147186
147247
147298
147115
147172
147305
147315
147346
147309
147324
147413
147324
147250
147311
147239
147269
147295
147238
147221
147313
147320
147336
147480
147355
147209
147134
147177
147232
147224
147306
147428
147372
147286
147234
147286
147341
147382
147325
147360
147302
147303
147361
147389
147353
147295
147298
147291
147361
147362
147422
147381
147384
147378
147286
147290
147205
147187
147169
147313
147451
147398
147366
147335
147265
147287
147256
147334
147340
147295
147291
147232
147216
147204
147150
147233
147178
147240
147187
147069
147054
147129
147201
147336
147216
147099
147129
147031
147045
147208
147239
147089
147136
147274
147191
147211
147162
147069
147155
147136
147121
147091
147120
147147
147200
147197
147077
147084
147074
147063
147116
147233
147197
147251
147155
147187
147200
147144
147178
147107
147048
147089
147176
147224
147102
147095
147134
147162
147259
147204
147150
147116
147076
147136
147127
147118
147075
147003
147107
147198
147333
147276
147093
147032
147104
147218
147125
147093
147120
147106
147220
147190
147190
147166
147095
147231
147220
147294
147309
147243
147219
147144
147132
147113
147125
147228
147193
147140
147039
146969
147117
147270
147336
147271
147222
147228
147165
147124
147161
147069
147168
147241
147202
147204
147231
147146
147128
147035
147212
147328
147250
147244
147271
147299
147242
147125
147042
147056
147180
147259
147352
147260
147221
147210
147153
147267
147256
147281
147197
147217
147159
147084
147068
147119
147165
147288
147331
147312
147235
147232
147119
147090
147202
147274
147339
147284
147281
147228
147121
147065
147118
147234
147298
147262
147218
147268
147298
147262
147212
147158
147156
147103
147118
147194
147214
147129
147093
147035
147148
147266
147352
147338
147256
147221
147200
147185
147182
147245
147242
147209
147228
147204
147221
147228
147177
147188
147237
147308
147260
147267
147233
147185
147138
147125
147282
147344
147399
147307
147245
147170
147137
147192
147274
147333
147303
147248
147088
147139
147203
147174
147182
147137
147113
147129
147243
147333
147363
147434
147365
147311
147280
147138
147087
147102
147092
147163
147268
147225
147239
147283
147308
147310
147297
147365
147259
147258
147269
147191
147119
147175
147290
147335
147246
147134
147219
147150
147186
147231
147250
147234
147252
147233
147222
147224
147131
147185
147305
147279
147294
147283
147236
147286
147205
147234
147266
147353
147382
147342
147307
147199
147257
147338
147387
147371
147257
147150
147141
147185
147358
147296
147306
147336
147251
147136
147101
147138
147155
147220
147213
147286
147327
147291
147325
147405
147436
147360
147093
147071
147190
147252
147293
147301
147295
147206
147227
147223
147301
147333
147246
147200
147248
147285
147280
147333
147354
147354
147266
147125
146928
146892
147189
147433
147539
147406
147348
147402
147468
147480
147486
147448
147414
147353
147499
147637
147507
147444
147333
147321
147216
147093
147028
146934
146934
146909
146816
146855
146843
146915
147022
146991
147050
147040
147015
147019
146990
147172
147193
147123
147200
147237
147273
147293
147313
147348
147371
147303
147166
147165
147200
147221
147329
147377
147284
147279
147300
147317
147389
147396
147352
147195
147148
147194
147253
147218
147136
147276
147417
147286
147324
147263
147266
147331
147371
147372
147203
147288
147310
147307
147267
147193
147341
147381
147286
147226
147180
147220
147357
147407
147421
147393
147411
147459
147238
147226
147237
147197
147249
147253
147290
147308
147351
147420
147444
147378
147245
147271
147375
147325
147175
147075
147010
147192
147430
147402
147391
147357
147328
147352
147341
147276
147317
147393
147341
147359
147299
147343
147420
147365
147416
147431
147365
147374
147389
147440
147400
147524
147450
147409
147440
147325
147300
147391
147535
147477
147396
147419
147458
147453
147488
147520
147511
147457
147453
147369
147198
147143
147181
147155
147203
147331
147340
147420
147408
147396
147316
147292
147302
147295
147265
147171
147236
147234
147187
147098
147124
147201
147264
147308
147202
147223
147293
147393
147308
147274
147213
147219
147224
147220
147186
147132
147105
147075
147160
147262
147339
147315
147187
147070
147177
147281
147339
147271
147291
147259
147208
147091
147142
147177
147247
147304
147262
147243
147165
147182
147163
147222
147228
147273
147147
147107
147230
147281
147307
147259
147226
147307
147299
147172
147135
147228
147284
147245
147244
147305
147268
147341
147397
147321
147202
147164
147045
147023
147190
147236
147260
147348
147325
147341
147345
147215
147174
147291
147247
147267
147149
147144
147090
147172
147301
147368
147375
147284
147264
147190
147184
147193
147219
147254
147300
147249
147196
147212
147157
147308
147277
147145
147156
147217
147335
147231
147260
147325
147221
147286
147267
147216
147202
147228
147198
147291
147252
147180
147236
147153
147125
147176
147266
147365
147358
147260
147226
147218
147132
147106
147016
147103
147255
147385
147336
147381
147342
147320
147302
147334
147247
147263
147281
147118
147057
147096
147216
147395
147320
147274
147357
147435
147377
147373
147359
147148
147135
147212
147259
147231
147224
147311
147271
147163
147142
147120
147128
147165
147280
147225
147205
147326
147320
147264
147301
147147
147259
147264
147231
147189
147190
147217
147288
147319
147356
147375
147321
147324
147355
147279
147192
147135
147220
147225
147296
147168
147119
147189
147351
147354
147217
147256
147371
147375
147338
147238
147168
147164
147194
147232
147202
147337
147339
147397
147404
147279
147170
147136
147051
147098
147288
147337
147286
147238
147291
147265
147346
147374
147333
147271
147284
147246
147202
147254
147342
147445
147299
147194
147214
147267
147232
147296
147217
147134
147160
147224
147263
147305
147371
147330
147216
147327
147334
147279
147251
147321
147238
147208
147237
147276
147181
147195
147461
147477
147382
147268
147214
147202
147168
147220
147323
147326
147369
147373
147495
147374
147160
147180
147183
147254
147312
147261
147187
147164
147218
147312
147287
147277
147321
147277
147212
147248
147247
147262
147282
147186
147156
147176
147373
147331
147298
147352
147358
147245
147212
147181
147185
147189
147274
147310
147193
147257
147323
147295
147386
147362
147334
147390
147307
147232
147270
147412
147458
147529
147556
147545
147568
147527
147557
147644
147630
147474
147333
147287
147210
147181
147029
146989
146938
146943
146902
147001
146924
146889
147059
147048
147016
147022
146958
146984
147082
147198
147280
147273
147239
147287
147342
147381
147320
147234
147127
147075
147113
147350
147391
147321
147399
147430
147420
147225
147178
147286
147366
147389
147412
147361
147351
147370
147402
147310
147305
147364
147292
147284
147267
147302
147193
147167
147299
147431
147377
147376
147375
147307
147330
147328
147286
147286
147433
147439
147451
147370
147229
147271
147378
147402
147411
147492
147407
147324
147382
147294
147187
147260
147177
147286
147400
147477
147467
147292
147300
147368
147376
147361
147414
147311
147353
147342
147354
147412
147417
147451
147428
147535
147558
147435
147365
147427
147472
147429
147408
147281
147239
147313
147343
147359
147414
147399
147418
147489
147509
147453
147459
147465
147453
147411
147386
147370
147362
147474
147404
147358
147531
147482
147383
147472
147458
147374
147306
147283
147266
147468
147529
147553
147485
147317
147257
147265
147238
147346
147402
147246
147287
147310
147387
147352
147193
147218
147218
147169
147125
147276
147400
147368
147246
147099
147142
147180
147215
147208
147144
147116
147084
147176
147224
147227
147239
147180
147192
147202
147087
147041
147167
147211
147117
147191
147163
147074
147119
147207
147252
147276
147270
147276
147254
147239
147368
147279
147199
147205
147061
146992
147124
147266
147373
147450
147259
147185
147208
147195
147163
147234
147205
147232
147400
147285
147227
147136
147097
147093
147050
147161
147304
147305
147211
147226
147198
147267
147296
147271
147221
147194
147213
147217
147123
147105
147189
147263
147315
147311
147225
147216
147189
147161
147280
147311
147218
147161
147140
147202
147185
147297
147294
147234
147169
147131
147043
147102
147295
147396
147252
147229
147218
147149
147127
147125
147132
147333
147348
147327
147213
147267
147293
147250
147197
147191
147191
147330
147395
147275
147272
147246
147196
147172
147204
147205
147109
147104
147102
147131
147225
147217
147279
147286
147265
147267
147283
147196
147113
147042
147129
147113
147124
147226
147420
147438
147382
147333
147254
147119
147127
147237
147200
147179
147175
147131
147223
147326
147307
147315
147229
147204
147143
147207
147278
147259
147243
147204
147094
147031
147006
147144
147200
147237
147288
147289
147265
147259
147231
147132
147099
147081
147091
147009
147123
147144
147175
147305
147198
147247
147131
147171
147164
147225
147246
147122
147073
147093
147198
147233
147245
147270
147305
147243
147173
147125
147150
147192
147159
147182
147175
147210
147260
147178
147165
147067
147070
147092
147210
147303
147298
147201
147149
147016
146983
147181
147267
147225
147199
147212
147180
147179
147140
147115
147093
147048
147167
147106
147176
147248
147166
147218
147285
147331
147224
147095
147079
146973
147127
147272
147144
147156
147272
147296
147162
147091
147117
147102
147165
147211
147224
147238
147145
147146
147180
147181
147205
147191
147101
147117
147138
147217
147333
147370
147242
147180
147182
147123
147158
147091
146960
147039
147228
147372
147327
147285
147261
147301
147299
147243
147202
147179
147187
147249
147254
147118
147190
147255
147228
147270
147232
147123
147148
147128
147146
147156
147123
147098
147142
147125
147184
147185
147153
147195
147185
147226
147247
147141
147090
147053
147001
147073
147195
147196
147147
147102
147146
147262
147213
147212
147131
147129
147129
147092
147028
147086
147109
147080
147153
147131
147131
147199
147262
147198
147176
147080
146953
147079
147192
147225
147164
147115
147173
147276
147325
147331
147325
147312
147382
147501
147395
147273
147127
147044
147120
147151
147200
147126
147068
146887
146793
146878
146744
146690
146672
146638
146697
146759
146901
147061
147005
146903
146984
146970
146943
146981
147118
147200
147100
147091
146983
147067
147084
147052
147080
147090
146987
146988
146982
147065
147195
147248
147211
147152
147148
147119
147088
146961
146804
146875
147070
147323
147369
147188
147119
147101
147082
147115
147150
147135
147084
147118
147106
147126
147208
147227
147236
147177
147108
147058
146945
147039
147105
147155
147205
147106
147122
147101
147149
147171
147170
147078
147042
147106
147105
147052
147014
147082
147079
147211
147229
147160
147127
147056
147172
147135
147086
147065
147048
147146
147103
147138
147144
147148
147068
147103
147167
147156
147155
147091
146886
146900
147014
147108
147023
147084
147169
147064
147039
147062
147059
147045
147091
147122
147143
147115
147172
147028
146932
147012
146994
147026
146996
146963
147032
147203
147093
146935
147002
147159
147206
147095
146990
146868
146835
146959
147113
147037
147119
147054
146999
146984
146971
146922
146891
146825
146840
146913
147004
147082
146959
146907
146887
146895
146975
146908
146973
146988
146809
146777
146913
146978
146909
146906
146928
146802
146762
146824
146904
146905
146849
146821
146789
146732
146778
146801
146842
146908
146786
146724
146715
146817
146923
146842
146932
146932
146831
146773
146697
146789
146699
146654
146756
146890
146916
146918
146874
146821
146864
146893
146803
146753
146711
146693
146821
146845
146830
146876
146951
146935
146864
146762
146678
146634
146687
146779
146855
146754
146810
146954
146838
146839
146837
146835
146869
146873
146916
146804
146797
146760
146699
146696
146796
146854
146936
146889
146863
146872
146727
146742
146720
146813
146997
146930
146787
146719
146730
146763
146753
146645
146506
146592
146757
146947
146923
146732
146660
146706
146741
146656
146660
146709
146777
146795
146739
146720
146765
146735
146643
146649
146574
146550
146617
146694
146727
146747
146732
146811
146777
146670
146597
146664
146620
146666
146768
146664
146604
146673
146715
146734
146639
146683
146767
146722
146762
146780
146826
146812
146689
146647
146541
146597
146772
146697
146776
146793
146806
146891
146830
146738
146612
146585
146502
146616
146633
146768
146811
146717
146659
146642
146566
146533
146466
146480
146585
146646
146719
146696
146672
146643
146635
146628
146615
146672
146522
146522
146567
146616
146787
146823
146682
146694
146544
146567
146604
146513
146472
146487
146496
146510
146590
146751
146765
146707
146594
146470
146547
146525
146421
146399
146555
146683
146657
146626
146699
146698
146651
146615
146597
146615
146675
146652
146630
146545
146487
146475
146513
146522
146529
146679
146644
146549
146510
146513
146597
146595
146680
146696
146714
146653
146510
146418
146423
146398
146404
146509
146589
146541
146713
146701
146725
146595
146529
146582
146675
146600
146520
146468
146516
146525
146509
146616
146579
146620
146594
146568
146640
146664
146686
146710
146683
146614
146517
146453
146513
146455
146523
146577
146703
146837
146711
146625
146610
146574
146554
146504
146536
146662
146687
146633
146602
146529
146644
146687
146602
146540
146503
146476
146590
146584
146528
146507
146528
146511
146541
146476
146484
146518
146644
146675
146608
146593
146458
146406
146460
146499
146481
146401
146419
146613
146812
146731
146642
146530
146484
146530
146611
146592
146627
146643
146537
146484
146458
146332
146375
146451
146616
146689
146718
146718
146516
146553
146654
146787
146804
146805
146841
146807
146747
146660
146656
146736
146694
146545
146580
146563
146367
146237
146129
146176
146176
146130
146093
146178
146223
146254
146215
146093
146178
146170
146251
146336
146447
146481
146509
146486
146414
146434
146426
146419
146439
146410
146466
146426
146417
146528
146648
146761
146748
146581
146478
146474
146508
146518
146501
146506
146548
146461
146587
146561
146452
146447
146483
146500
146468
146347
146351
146529
146547
146640
146624
146616
146679
146627
146567
146450
146452
146452
146541
146553
146588
146585
146629
146568
146589
146522
146516
146500
146536
146578
146545
146626
146680
146618
146577
146454
146402
146336
146379
146546
146575
146655
146551
146561
146575
146630
146622
146658
146624
146616
146545
146569
146681
146658
146589
146613
146678
146657
146598
146584
146556
146566
146579
146544
146530
146518
146619
146682
146711
146644
146601
146568
146677
146770
146799
146698
146725
146586
146578
146517
146590
146638
146688
146772
146724
146672
146675
146671
146638
146596
146615
146589
146601
146522
146555
146566
146636
146645
146637
146583
146513
146478
146487
146515
146438
146392
146414
146520
146750
146804
146617
146539
146456
146455
146549
146500
146481
146507
146536
146507
146556
146614
146662
146563
146448
146503
146497
146481
146587
146578
146497
146541
146531
146488
146559
146501
146540
146596
146587
146433
146327
146364
146615
146734
146667
146646
146632
146643
146583
146488
146371
146335
146468
146536
146676
146621
146586
146685
146775
146725
146644
146587
146533
146440
146425
146452
146518
146647
146658
146595
146540
146546
146597
146600
146554
146541
146524
146491
146601
146618
146667
146678
146662
146709
146683
146554
146552
146481
146475
146496
146565
146698
146719
146583
146565
146528
146539
146541
146612
146599
146541
146584
146539
146525
146480
146582
146607
146522
146491
146566
146670
146689
146646
146495
146493
146435
146465
146456
146497
146605
146530
146615
146589
146664
146696
146600
146595
146649
146637
146532
146567
146600
146520
146588
146580
146542
146674
146761
146756
146582
146522
146498
146608
146497
146481
146497
146631
146686
146702
146666
146633
146595
146542
146608
146681
146603
146565
146575
146640
146608
146571
146549
146523
146570
146613
146648
146676
146659
146636
146725
146678
146585
146566
146534
146550
146478
146628
146682
146582
146601
146578
146640
146617
146649
146703
146628
146646
146701
146708
146643
146573
146521
146516
146665
146710
146706
146703
146612
146607
146650
146628
146607
146619
146639
146590
146615
146697
146728
146853
146738
146617
146617
146681
146696
146724
146597
146620
146596
146681
146730
146676
146727
146712
146593
146652
146604
146723
146735
146743
146708
146627
146634
146636
146595
146632
146653
146634
146607
146681
146674
146667
146759
146701
146641
146661
146705
146678
146680
146633
146665
146728
146723
146655
146644
146670
146694
146586
146620
146827
146835
146765
146702
146719
146649
146593
146624
146738
146788
146752
146693
146653
146782
146693
146693
146680
146529
146607
146569
146689
146749
146666
146659
146628
146704
146803
146878
146755
146786
146763
146765
146618
146679
146723
146601
146612
146669
146690
146701
146707
146824
146808
146722
146745
146713
146696
146708
146618
146613
146706
146677
146683
146710
146619
146668
146666
146770
146751
146704
146726
146686
146698
146741
146734
146710
146616
146697
146763
146710
146673
146689
146674
146629
146684
146725
146701
146701
146668
146742
146769
146708
146702
146852
146919
146900
146958
146857
146912
146977
147022
147052
146957
146948
146908
146781
146674
146472
146370
146516
146554
146349
146349
146325
146294
146347
146359
146310
146311
146318
146419
146550
146633
146658
146641
146621
146600
146574
146581
146573
146640
146764
146774
146679
146664
146686
146669
146702
146768
146812
146660
146633
146495
146705
146828
146752
146759
146718
146676
146659
146580
146591
146633
146719
146831
146788
146703
146698
146738
146694
146707
146669
146591
146607
146791
146947
146826
146714
146742
146823
146731
146711
146714
146704
146752
146823
146746
146682
146689
146723
146715
146718
146720
146672
146693
146683
146636
146724
146804
146847
146865
146706
146690
146863
146863
146826
146833
146831
146848
146822
146712
146727
146705
146764
146835
146819
146790
146804
146802
146845
146810
146863
146862
146765
146717
146634
146556
146762
146936
146839
146930
146969
146852
146925
146845
146727
146726
146757
146791
146777
146787
146872
146839
146868
146896
146835
146769
146818
146865
146847
146879
146845
146724
146735
146767
146679
146629
146801
146858
146860
146754
146729
146719
146720
146658
146678
146728
146778
146648
146659
146661
146686
146667
146732
146761
146699
146669
146702
146744
146652
146698
146719
146603
146577
146630
146753
146848
146790
146781
146842
146812
146707
146585
146546
146562
146597
146594
146595
146631
146644
146644
146568
146624
146652
146616
146632
146641
146583
146621
146649
146736
146725
146714
146639
146533
146549
146593
146689
146720
146668
146677
146693
146692
146674
146613
146606
146633
146739
146766
146755
146609
146570
146600
146660
146613
146538
146560
146526
146606
146776
146751
146697
146608
146524
146549
146517
146583
146683
146759
146721
146761
146715
146728
146793
146777
146665
146582
146621
146622
146637
146644
146642
146587
146608
146542
146564
146612
146681
146580
146613
146629
146679
146608
146760
146800
146701
146661
146642
146658
146545
146545
146689
146595
146648
146676
146734
146723
146599
146629
146630
146554
146621
146558
146562
146601
146654
146580
146589
146609
146619
146722
146747
146603
146594
146623
146573
146526
146504
146537
146645
146745
146685
146735
146792
146690
146641
146604
146604
146529
146509
146593
146628
146547
146553
146590
146597
146553
146635
146662
146657
146616
146653
146619
146550
146537
146567
146471
146401
146519
146656
146718
146680
146625
146558
146552
146518
146510
146463
146410
146450
146504
146594
146640
146580
146562
146572
146560
146524
146530
146621
146558
146557
146517
146425
146568
146646
146702
146587
146542
146534
146559
146459
146408
146485
146537
146545
146533
146500
146582
146626
146590
146479
146411
146499
146483
146518
146558
146568
146502
146445
146467
146460
146529
146573
146503
146440
146446
146340
146475
146456
146364
146319
146382
146566
146570
146539
146524
146458
146523
146605
146550
146486
146394
146339
146339
146386
146376
146389
146427
146472
146487
146575
146461
146412
146406
146376
146342
146379
146351
146311
146248
146426
146545
146692
146584
146566
146479
146389
146429
146435
146424
146327
146295
146256
146312
146542
146562
146590
146474
146354
146294
146237
146219
146250
146370
146470
146532
146462
146437
146326
146202
146203
146330
146305
146378
146466
146470
146389
146357
146400
146449
146390
146248
146280
146230
146191
146142
146223
146360
146473
146534
146377
146128
146145
146103
146105
146177
146154
146322
146362
146323
146263
146211
146178
146111
146131
146215
146250
146314
146168
146052
145992
146046
146238
146309
146291
146312
146251
146233
146345
146419
146437
146437
146349
146290
146428
146505
146422
146424
146408
146335
146269
146231
146190
146163
146040
145848
145792
145747
145721
145656
145749
145829
145820
145803
145807
145697
145635
145686
145838
146000
146050
145986
145941
145917
145965
146093
146100
146105
146123
146131
146095
145946
145910
145898
145912
145943
146066
146121
146190
146120
146111
146097
146021
145959
146051
146029
145966
146036
146078
145955
145870
145843
145942
146026
146059
146114
146107
146112
146038
145939
145851
145790
145947
145935
145928
145951
145960
145857
145859
145950
145996
146107
145964
145854
145769
145826
145831
145906
146041
146029
145990
145900
145861
145748
145813
146046
146195
146116
146043
145948
145915
145921
145753
145603
145688
145771
145855
146040
145954
145873
145890
145846
145822
145941
145932
145861
145825
145807
145758
145798
145770
145759
145791
145794
145887
145885
145854
145802
145785
145706
145673
145680
145833
145887
145804
145686
145680
145740
145761
145605
145732
145753
145740
145731
145631
145651
145690
145723
145771
145694
145672
145742
145758
145768
145725
145726
145710
145597
145461
145438
145509
145414
145506
145576
145548
145553
145479
145513
145577
145556
145553
145467
145427
145463
145435
145388
145431
145412
145439
145461
145557
145426
145361
145308
145278
145341
145348
145421
145444
145427
145425
145398
145369
145321
145231
145226
145310
145411
145269
145232
145374
145252
145170
145099
145153
145246
145378
145461
145414
145399
145303
145207
145149
145188
145241
145270
145201
145120
145162
145140
145202
145243
145252
145269
145290
145176
145165
145127
145042
145225
145354
145324
145243
145259
145216
145146
145146
145181
145214
145164
145045
145026
144983
144958
144968
144963
145021
145060
145113
145152
145209
145079
145022
145069
145067
145018
144955
145045
145058
145144
145139
145029
145001
145050
145035
145072
145112
145026
144970
144938
144929
144850
144809
144990
144970
144847
144903
144996
145086
145037
144982
144874
144923
144981
144900
144787
144835
144908
144939
144967
144912
144850
144832
144750
144848
144901
144921
144905
144900
144972
144890
144764
144749
144717
144841
144848
144742
144736
144692
144642
144618
144675
144766
144824
144820
144852
144781
144821
144793
144724
144722
144706
144700
144692
144743
144639
144534
144518
144526
144659
144607
144600
144670
144695
144740
144647
144696
144627
144636
144604
144552
144612
144621
144567
144641
144666
144588
144500
144437
144350
144448
144560
144617
144545
144564
144584
144540
144589
144612
144532
144397
144319
144378
144467
144629
144646
144483
144496
144433
144424
144452
144441
144519
144518
144523
144455
144391
144390
144424
144393
144436
144431
144442
144366
144449
144402
144453
144582
144506
144431
144363
144339
144421
144300
144361
144475
144357
144350
144354
144346
144321
144398
144374
144371
144381
144355
144263
144373
144434
144236
144211
144165
144263
144387
144457
144378
144274
144224
144241
144342
144372
144351
144338
144337
144313
144312
144236
144174
144140
144243
144306
144311
144359
144390
144299
144319
144297
144224
144253
144180
144182
144144
144143
144135
144067
144111
144092
144068
144162
144240
144284
144191
144208
144226
144209
144111
144012
143920
143858
144048
144216
144238
144258
144220
144121
144046
144032
143985
143978
143993
144067
144087
144088
144031
144053
144170
144003
144052
144145
144192
144110
144028
144071
144150
144129
144001
143935
143952
143994
144018
144078
144097
144251
144247
144274
144167
144187
144294
144352
144324
144223
144077
143998
143858
143762
143818
143804
143734
143700
143616
143628
143546
143577
143723
143791
143843
143718
143725
143807
143857
143941
143915
143964
143914
143841
143909
143903
143952
143947
143941
143846
143867
144001
144041
143974
143872
143870
143959
144000
143993
143966
143863
143890
143924
143910
144006
144010
144005
143972
144027
143998
143948
143894
143861
143881
143927
143925
143957
144006
144010
143968
143833
143961
144108
144277
144177
144012
143913
143931
143828
143773
143848
143967
144007
143985
143944
143921
143878
143903
143813
143902
143914
143814
143931
143986
143998
143891
143833
143888
143848
143760
143755
143824
143962
144092
144108
144007
144014
144028
144069
144043
143981
143879
143998
143972
143917
143914
143968
143951
143939
143943
143887
143917
144058
144132
144056
144045
144051
144032
143972
143943
143867
144047
144116
144010
143938
143923
143972
143970
143990
144043
143944
143957
143955
144007
144032
144018
144137
144087
144007
143944
143876
143917
143954
143864
143813
143701
143676
143720
143876
143995
143962
143975
143912
143893
143808
143725
143732
143843
143855
143833
143805
143790
143799
143870
143871
143787
143822
143779
143644
143649
143791
143868
143841
143817
143775
143738
143796
143849
143819
143837
143761
143794
143809
143726
143791
143704
143773
143911
143961
143794
143739
143765
143774
143829
143767
143678
143777
143784
143885
143875
143857
143806
143787
143742
143819
143801
143886
143905
143765
143736
143779
143761
143710
143803
143851
143840
143871
143805
143791
143773
143674
143677
143749
143815
143796
143817
143894
143859
143812
143752
143725
143793
143801
143799
143722
143625
143780
143856
143911
143880
143792
143817
143832
143795
143762
143806
143790
143800
143845
143777
143708
143766
143822
143807
143717
143674
143802
143809
143802
143905
143768
143653
143681
143697
143711
143836
143934
144016
143884
143836
143764
143773
143833
143922
143838
143773
143824
143828
143812
143810
143784
143865
143847
143920
143939
143858
143804
143823
143731
143699
143652
143761
143854
143926
143972
143958
143838
143821
143820
143797
143800
143815
143864
143851
143848
143868
143824
143846
143788
143836
143847
143891
143834
143851
143852
143976
144026
143953
143952
143838
143755
143727
143707
143706
143894
143942
143977
143988
143937
143959
143875
143849
143871
143805
143767
143791
143923
143923
143939
143895
143813
143817
143750
143846
143939
144055
143964
143791
143804
143818
143881
143952
143921
143905
143967
143811
143820
143918
143960
143969
143911
143901
143954
143887
143934
143856
143882
143849
143903
143865
143832
143849
143860
143967
144007
143895
143972
143947
143964
143916
143865
143810
143932
144019
143984
143923
143966
143900
144059
144032
143956
143987
143934
143936
143877
143875
143971
143983
144038
144046
144036
143921
143897
143917
143912
143967
144067
144077
144078
144000
143892
143918
143950
144003
143943
143890
143991
144011
144004
144033
143918
143893
143908
143917
143842
143797
143862
143994
144199
144104
143902
143874
143945
143892
143894
143886
143943
143915
143989
144052
144030
144051
144030
144025
143949
143848
143907
143861
143828
143914
143958
143957
144056
144084
144070
143915
143871
143865
143973
143967
143921
143921
143975
143995
144010
144011
144027
144137
144131
144224
144301
144291
144300
144258
144221
144091
144090
144157
144204
144298
144168
144060
143889
143747
143699
143745
143681
143623
143665
143752
143777
143875
143799
143821
143827
143840
143798
143809
143978
144050
144077
144029
143995
144042
144075
144077
144106
144054
144096
144090
144014
144079
144054
143962
144144
144109
144090
144123
144117
144092
144150
144123
144213
144158
144126
144052
144116
144167
144183
144142
144091
144181
144239
144178
144087
144060
144073
144084
144197
144245
144266
144261
144160
144155
144200
144171
144161
144138
144033
143994
144144
144272
144303
144275
144157
144149
144279
144292
144236
144204
144276
144349
144257
144085
144096
144148
144162
144137
144143
144146
144357
144457
144415
144398
144316
144247
144236
144296
144180
144138
144150
144259
144379
144339
144306
144325
144378
144285
144309
144282
144300
144447
144417
144407
144367
144275
144297
144290
144288
144257
144513
144607
144601
144447
144321
144334
144391
144383
144383
144315
144207
144267
144270
144537
144593
144425
144427
144405
144307
144306
144307
144312
144337
144468
144470
144316
144350
144436
144390
144354
144340
144326
144386
144301
144318
144266
144268
144222
144191
144229
144295
144356
144529
144550
144348
144317
144341
144313
144283
144298
144233
144327
144367
144371
144471
144398
144386
144351
144317
144343
144305
144292
144289
144292
144318
144259
144294
144298
144325
144424
144442
144483
144448
144246
144168
144063
144042
144247
144404
144502
144454
144443
144436
144397
144336
144259
144305
144397
144399
144408
144398
144288
144305
144365
144455
144509
144407
144332
144405
144531
144419
144378
144375
144301
144251
144260
144345
144366
144482
144546
144331
144207
144186
144236
144387
144418
144387
144521
144468
144410
144416
144420
144445
144442
144361
144270
144303
144372
144387
144360
144415
144612
144699
144551
144460
144457
144499
144435
144382
144430
144447
144358
144485
144551
144534
144506
144526
144442
144508
144528
144442
144413
144521
144573
144534
144457
144426
144408
144406
144457
144570
144622
144644
144588
144520
144481
144457
144486
144548
144551
144482
144448
144439
144555
144603
144474
144513
144548
144567
144406
144387
144442
144569
144676
144638
144617
144582
144474
144506
144628
144651
144619
144647
144604
144618
144513
144536
144537
144493
144566
144527
144529
144529
144592
144630
144605
144548
144513
144605
144561
144493
144574
144603
144599
144550
144431
144464
144450
144572
144563
144551
144640
144624
144593
144627
144618
144609
144520
144441
144577
144678
144578
144566
144544
144598
144584
144560
144600
144639
144568
144509
144561
144610
144604
144692
144707
144696
144632
144527
144478
144446
144445
144576
144756
144716
144665
144609
144608
144595
144556
144483
144540
144520
144621
144679
144687
144744
144709
144620
144743
144689
144649
144586
144623
144666
144614
144590
144663
144687
144670
144782
144777
144695
144665
144668
144593
144489
144587
144658
144606
144589
144728
144644
144583
144592
144517
144468
144535
144624
144663
144763
144731
144707
144761
144808
144743
144689
144710
144725
144784
144652
144607
144574
144552
144644
144741
144819
144705
144739
144720
144758
144763
144668
144593
144676
144695
144784
144825
144620
144545
144515
144581
144616
144664
144681
144753
144744
144691
144737
144806
144726
144687
144698
144686
144724
144668
144612
144682
144671
144625
144651
144736
144689
144629
144702
144663
144714
144729
144790
144874
144892
144908
144871
144901
144971
144926
144908
144966
144932
144884
144852
144814
144796
144756
144730
144491
144353
144412
144352
144298
144314
144280
144357
144368
144491
144509
144419
144465
144495
144477
144500
144562
144602
144565
144545
144515
144685
144766
144890
144898
144788
144753
144727
144671
144573
144529
144509
144713
144884
144790
144803
144736
144696
144713
144627
144654
144648
144740
144848
144744
144656
144640
144646
144772
144836
144787
144714
144636
144632
144609
144575
144579
144687
144733
144757
144851
144782
144681
144723
144790
144731
144756
144799
144807
144838
144727
144731
144782
144728
144721
144660
144650
144780
144773
144825
144796
144746
144682
144692
144731
144719
144735
144722
144836
144833
144836
144792
144725
144846
144979
144940
144874
144802
144697
144724
144699
144717
144783
144846
144908
144916
144873
144879
144931
144822
144807
144841
144824
144811
144906
144960
144964
144962
144847
144730
144741
144836
144715
144750
144813
144824
144844
144832
144817
144813
144782
144885
144897
144821
144807
144853
144846
144799
144844
144831
144729
144781
144907
144831
144785
144738
144771
144822
144793
144746
144603
144618
144677
144623
144660
144622
144675
144835
144802
144731
144606
144512
144523
144546
144538
144531
144629
144743
144719
144805
144844
144811
144719
144625
144670
144634
144595
144560
144593
144682
144719
144773
144771
144675
144667
144688
144740
144721
144603
144379
144462
144663
144827
144832
144728
144633
144595
144611
144704
144774
144699
144738
144778
144820
144729
144638
144704
144689
144591
144536
144571
144686
144789
144744
144720
144667
144693
144748
144730
144732
144731
144717
144754
144720
144677
144643
144640
144634
144563
144546
144655
144695
144751
144817
144865
144754
144769
144630
144524
144446
144545
144729
144614
144652
144808
144765
144696
144635
144666
144781
144773
144694
144625
144570
144579
144550
144570
144661
144598
144601
144676
144598
144621
144589
144522
144564
144658
144829
144924
144691
144653
144750
144755
144638
144579
144645
144628
144572
144623
144764
144788
144811
144737
144829
144830
144650
144578
144533
144511
144530
144608
144842
144884
144891
144829
144617
144670
144683
144661
144700
144717
144681
144711
144761
144760
144714
144738
144704
144638
144677
144781
144794
144676
144650
144573
144569
144664
144678
144627
144697
144638
144671
144819
144695
144663
144690
144662
144621
144714
144650
144670
144713
144671
144663
144702
144629
144629
144731
144711
144695
144663
144642
144688
144742
144801
144747
144754
144674
144695
144700
144719
144658
144723
144683
144646
144715
144840
144743
144721
144745
144704
144786
144749
144711
144731
144674
144645
144774
144829
144761
144649
144616
144682
144702
144855
144880
144892
144847
144700
144681
144691
144730
144676
144714
144794
144790
144783
144691
144666
144743
144753
144849
144831
144775
144747
144692
144799
144845
144882
144863
144812
144852
144794
144763
144760
144688
144731
144769
144740
144830
144857
144888
144754
144832
144828
144779
144818
144716
144695
144702
144768
144714
144786
144740
144825
144719
144707
144779
144876
144852
144725
144662
144673
144741
144724
144777
144822
144759
144653
144659
144702
144820
144892
144775
144758
144708
144648
144661
144708
144806
144811
144848
144768
144780
144744
144813
144928
144906
144950
144985
145001
144959
144907
144996
145096
145070
145004
144938
144945
144871
144880
144914
144862
144881
144802
144611
144455
144427
144424
144310
144240
144324
144391
144303
144411
144529
144508
144505
144590
144726
144631
144601
144688
144836
144828
144877
144867
144889
144820
144727
144675
144663
144748
144790
144848
144840
144890
144946
144781
144782
144904
144907
144926
144858
144774
144670
144751
144674
144698
144820
144992
144966
145008
144955
144872
144745
144771
144787
144783
144905
144863
144783
144874
144892
144841
144756
144821
144881
144948
144948
144897
144889
144918
144897
144847
144759
144796
144803
144798
144758
144709
144741
144908
144966
145098
145000
144984
144983
145005
144970
144932
144947
144937
144975
144986
144852
144871
144829
144891
144973
144992
144969
145055
145073
145097
145056
145008
145011
144975
144993
144938
144932
144900
144950
144975
145026
145099
145177
145146
145138
145185
145147
145073
144958
145019
145049
145106
145075
145115
145137
145169
145178
145162
145104
144994
144929
144967
144992
145072
145093
145114
145085
145032
145030
145026
144979
144966
145022
145059
145125
145035
145055
144943
144938
144974
144959
145067
145005
145011
145009
144891
144958
144965
145030
144918
144755
144833
144927
145194
145038
144972
145013
145002
144931
144935
144903
144907
144844
144911
144974
144979
145024
145133
145041
145029
145005
144995
144915
144960
145011
144946
144910
144930
144916
144938
144950
145017
145068
145069
144943
144935
144972
144932
144935
144983
144972
144961
144921
144970
144993
145088
145065
145036
145136
145077
144983
144991
144985
144906
144927
144920
145019
145139
145094
145041
145071
145093
145048
145078
144959
145037
145104
145155
145108
144974
144870
144856
144990
145063
145132
145088
145079
145069
144972
144955
144974
145032
145093
145167
145138
145042
144938
145029
144949
144964
145006
145073
145156
145174
145121
145032
145054
145084
145100
145141
145008
145050
144951
144951
144974
145019
145094
145140
145089
145011
144947
145062
145092
145094
145152
145189
145086
145103
145131
145131
145053
145168
145116
145084
145131
145145
145137
145107
145064
145128
145077
145117
145118
145066
145122
145180
145188
145205
145198
145232
145157
145127
145059
145043
145092
145161
145203
145115
145201
145152
145065
145102
145198
145135
145098
145135
145128
145078
145181
145201
145231
145215
145141
145127
145145
145137
145162
145191
145094
145090
145114
145180
145224
145245
145191
145122
145046
145065
145101
145175
145212
145206
145213
145219
145366
145312
145222
145202
145126
145158
145160
145231
145260
145264
145318
145309
145218
145188
145106
145041
145020
145074
145220
145201
145404
145403
145297
145302
145374
145365
145310
145178
145152
145150
145176
145135
145221
145267
145319
145242
145185
145245
145237
145136
145224
145299
145314
145298
145346
145295
145239
145287
145248
145192
145207
145233
145320
145300
145269
145246
145199
145122
145180
145447
145615
145505
145242
145244
145368
145303
145258
145342
145274
145253
145237
145283
145324
145354
145312
145329
145328
145314
145419
145384
145339
145220
145276
145273
145199
145144
145153
145276
145320
145373
145362
145436
145464
145392
145345
145387
145329
145362
145290
145262
145308
145338
145363
145320
145273
145236
145220
145180
145124
145306
145434
145367
145413
145431
145397
145281
145201
145281
145338
145376
145372
145309
145361
145371
145332
145357
145471
145533
145540
145624
145596
145624
145662
145702
145660
145691
145634
145616
145580
145508
145458
145429
145321
145224
145148
145122
145036
144938
144832
144803
144875
144902
145133
145243
145212
145161
145229
145217
145286
145346
145327
145330
145367
145337
145384
145393
145386
145534
145425
145364
145413
145467
145398
145425
145466
145572
145490
145461
145467
145491
145535
145534
145591
145519
145438
145432
145363
145285
145269
145320
145403
145400
145497
145583
145663
145683
145598
145582
145549
145472
145394
145408
145472
145522
145545
145456
145414
145500
145493
145597
145719
145643
145572
145674
145456
145451
145444
145523
145570
145602
145615
145618
145541
145561
145517
145581
145599
145574
145573
145569
145576
145569
145498
145554
145690
145771
145659
145573
145535
145507
145557
145667
145678
145763
145717
145619
145510
145540
145541
145623
145703
145656
145706
145745
145784
145916
145861
145712
145627
145633
145679
145676
145671
145652
145606
145638
145704
145750
145780
145821
145767
145717
145689
145688
145722
145773
145933
145835
145790
145786
145798
145705
145743
145710
145706
145702
145662
145539
145641
145829
145774
145664
145713
145762
145762
145676
145640
145677
145660
145637
145582
145543
145755
145887
145813
145741
145683
145640
145609
145618
145626
145628
145654
145755
145782
145770
145717
145729
145667
145626
145662
145661
145698
145581
145507
145560
145562
145641
145716
145707
145867
145830
145662
145695
145696
145690
145663
145712
145803
145821
145771
145667
145619
145653
145751
145812
145829
145798
145812
145798
145788
145754
145691
145659
145738
145816
145792
145768
145697
145780
145796
145809
145827
145765
145698
145646
145654
145786
145873
145811
145863
145852
145864
145919
145834
145707
145623
145666
145791
145874
145885
145755
145793
145840
145879
145841
145786
145806
145766
145786
145702
145645
145801
145842
145879
146007
145942
145930
145982
145990
145923
145789
145775
145749
145714
145783
145841
145972
146011
145876
145811
145762
145899
145914
145891
145957
145992
145982
145968
145856
145850
145851
145906
145814
145813
145869
145825
145776
145812
145839
145897
145980
146010
145942
146020
146007
145906
145883
145954
145945
145897
145948
145866
145779
145829
145935
145922
146021
146088
146089
145920
145726
145809
145908
145997
145949
145896
145891
145945
145997
145962
145838
145864
145909
145999
146108
146133
146067
145952
145960
145986
145914
145865
145927
145963
145935
145935
145897
145845
145902
145926
145954
146047
145994
145980
145959
145873
145914
145982
145987
146005
145945
145964
145875
145866
145899
145848
145840
145914
145965
146011
146035
146041
146009
146065
146114
146019
145997
145974
145929
145922
145930
145892
145860
145919
145981
146079
146025
146055
146057
145964
146025
145939
145964
145902
145884
145995
146035
146068
146011
145965
145968
145966
145961
145931
145982
145976
146009
146012
145959
145986
146020
146031
146025
146020
146029
145890
145892
145983
146072
146187
146126
146024
146000
146009
145971
146016
146013
146026
145985
145920
145990
146062
146118
146165
146209
146225
146243
146185
146055
146025
146004
145939
145853
145728
145789
145917
146317
146424
146314
146185
146157
146063
146034
146061
146104
145978
145976
145927
145858
145861
145913
146039
146183
146250
146188
146126
146153
146076
146017
146019
145977
146036
146074
146080
146099
146167
146120
146141
146141
146091
146032
146021
145961
145936
146066
146141
146141
146094
146105
146175
146141
146213
146217
146208
146072
146060
146006
146064
146252
146532
146496
146432
146353
146223
146281
146269
146227
146189
146101
145997
145852
145704
145693
145787
145825
145801
145841
145788
145707
145798
145871
145925
145957
145957
145944
145849
145914
146061
146104
146068
146076
146063
146098
146211
146254
146196
146154
146020
146007
146117
146075
146062
146208
146215
146233
146197
146146
146212
146222
146155
146167
146204
146217
146258
146263
146205
146140
146085
146154
146062
146150
146335
146185
146195
146224
146233
146334
146422
146350
146137
146227
146284
146328
146252
146296
146279
146278
146239
146253
146178
146147
146195
146273
146255
146200
146284
146289
146256
146219
146198
146091
146092
146137
146262
146332
146302
146239
146244
146288
146243
146223
146301
146325
146495
146433
146316
146259
146231
146281
146432
146420
146459
146457
146363
146365
146356
146393
146414
146352
146346
146339
146374
146410
146429
146450
146472
146404
146355
146344
146413
146512
146439
146385
146497
146455
146345
146341
146331
146402
146430
146626
146669
146562
146478
146405
146314
146339
146399
146376
146407
146330
146338
146339
146369
146469
146477
146497
146469
146391
146361
146304
146243
146233
146278
146378
146381
146434
146428
146472
146465
146414
146339
146393
146415
146435
146385
146387
146398
146381
146339
146187
146289
146391
146371
146514
146437
146368
146357
146457
146574
146502
146496
146463
146330
146254
146165
146266
146417
146510
146422
146449
146496
146520
146462
146436
146429
146394
146425
146487
146409
146415
146401
146425
146439
146429
146439
146412
146419
146384
146415
146404
146397
146416
146445
146391
146372
146435
146452
146364
146388
146372
146428
146433
146322
146240
146224
146397
146633
146669
146636
146576
146558
146476
146410
146372
146446
146460
146429
146425
146445
146450
146444
146512
146521
146463
146442
146499
146481
146371
146270
146249
146392
146443
146535
146558
146445
146363
146433
146406
146284
146246
146470
146644
146575
146474
146450
146486
146433
146420
146433
146349
146388
146394
146495
146521
146547
146586
146504
146522
146528
146473
146495
146395
146284
146294
146392
146474
146522
146455
146505
146532
146469
146491
146515
146541
146493
146480
146486
146539
146459
146363
146481
146508
146558
146538
146437
146484
146449
146566
146507
146447
146484
146492
146444
146460
146527
146483
146432
146493
146468
146430
146444
146451
146413
146346
146294
146502
146580
146549
146541
146410
146402
146413
146440
146448
146418
146394
146439
146425
146405
146361
146360
146401
146382
146528
146526
146449
146404
146390
146494
146510
146505
146514
146481
146351
146282
146388
146434
146509
146546
146561
146430
146332
146241
146201
146402
146608
146673
146593
146581
146408
146407
146383
146388
146483
146472
146546
146653
146689
146587
146445
146462
146531
146484
146478
146422
146426
146470
146445
146480
146524
146445
146335
146304
146420
146559
146518
146503
146530
146473
146500
146474
146456
146553
146510
146362
146431
146531
146644
146686
146569
146503
146458
146278
146181
146362
146558
146731
146632
146607
146615
146542
146482
146441
146374
146240
146411
146447
146584
146599
146516
146512
146481
146462
146445
146456
146530
146512
146498
146422
146330
146288
146326
146505
146652
146674
146583
146466
146458
146509
146548
146549
146520
146462
146454
146466
146521
146530
146519
146493
146542
146615
146542
146618
146588
146689
146806
146820
146765
146716
146707
146816
146835
146716
146646
146507
146509
146450
146283
146133
146116
146183
146318
146292
146192
146116
146182
146212
146251
146216
146101
146138
146316
146549
146520
146362
146406
146447
146470
146479
146474
146420
146339
146464
146530
146484
146667
146723
146666
146541
146465
146447
146430
146451
146514
146480
146621
146600
146586
146550
146532
146612
146648
146676
146687
146636
146631
146537
146534
146535
146533
146582
146504
146514
146568
146546
146586
146575
146616
146629
146708
146636
146567
146695
146686
146570
146552
146712
146673
146586
146578
146659
146694
146636
146640
146617
146621
146602
146570
146650
146693
146708
146661
146628
146722
146690
146679
146636
146523
146488
146497
146555
146758
146863
146863
146760
146665
146710
146763
146787
146724
146706
146680
146743
146733
146560
146527
146635
146736
146825
146781
146791
146745
146723
146740
146739
146770
146751
146776
146747
146619
146571
146648
146807
146953
146929
146913
146804
146781
146761
146680
146658
146610
146574
146701
146789
146934
146845
146727
146727
146720
146719
146779
146726
146725
146736
146723
146751
146798
146727
146606
146560
146602
146670
146790
146733
146660
146555
146481
146560
146747
146786
146735
146686
146739
146668
146653
146667
146720
146696
146705
146703
146638
146668
146677
146569
146601
146615
146639
146616
146689
146573
146503
146614
146716
146726
146673
146726
146736
146705
146646
146585
146602
146617
146690
146650
146745
146732
146667
146627
146631
146692
146757
146732
146630
146672
146727
146665
146739
146736
146642
146648
146685
146700
146696
146670
146709
146686
146639
146635
146734
146818
146680
146657
146722
146704
146746
146823
146785
146716
146721
146694
146649
146583
146629
146681
146731
146692
146655
146719
146709
146658
146639
146740
146796
146793
146712
146657
146677
146649
146660
146618
146713
146694
146625
146631
146710
146725
146756
146780
146782
146751
146742
146719
146788
146768
146751
146686
146648
146650
146564
146617
146663
146711
146665
146594
146643
146662
146695
146839
146832
146707
146695
146664
146595
146643
146833
146778
146796
146835
146695
146667
146687
146652
146756
146677
146682
146682
146742
146910
146885
146914
146845
146816
146789
146748
146754
146802
146735
146726
146754
146771
146628
146677
146778
146792
146806
146732
146713
146722
146736
146704
146736
146808
146827
146827
146808
146809
146720
146720
146747
146706
146725
146716
146630
146680
146797
146788
146723
146749
146822
146854
146802
146801
146751
146691
146693
146816
146858
146910
146792
146801
146793
146934
146903
146764
146854
146922
146752
146730
146650
146656
146693
146681
146811
146954
146812
146854
146829
146796
146821
146804
146734
146768
146802
146800
146784
146736
146793
146864
146843
146899
146851
146798
146830
146855
146854
146850
146797
146736
146735
146760
146809
146833
146912
146880
146887
146823
146864
146830
146862
146760
146697
146694
146668
146733
146845
146845
146903
146905
146868
146831
146826
146847
146775
146800
146799
146833
146876
146926
146863
146727
146724
146835
146770
146747
146891
146978
147037
146990
146979
146850
146788
146814
146770
146652
146683
146819
146828
146828
146736
146782
146804
146870
146876
146821
146826
146851
146818
146872
146792
146821
146885
146824
146850
146769
146777
146807
146710
146800
146854
146878
146878
146726
146796
146765
146791
146793
146822
146760
146658
146690
146860
146992
147054
147002
146977
146931
146971
147041
147063
147115
147137
147173
147099
147002
147075
147019
147010
146891
146810
146853
146698
146611
146576
146656
146555
146390
146327
146380
146408
146434
146418
146451
146549
146554
146725
146741
146722
146740
146692
146698
146723
146734
146766
146802
146851
146927
146983
146871
146745
146731
146809
146895
146879
146816
146788
146849
146878
146771
146832
146966
147038
146957
146994
146998
146929
146892
146848
146866
146865
146823
146755
146734
146759
146825
146878
146932
147000
146925
146988
146982
146922
146919
146969
146889
146785
146744
146803
147032

[算法提取后的结构化特征]
# 由 EcgFeatureExtractor.extract() + toPromptText() 在手机端重建
# 与手表端发给 DeepSeek 的提示词文本一致（DS 实际收到的数据）
# 注意: 用户 profile（年龄性别）未存入测量记录，手机端重建时为'未知'
#       助手如需年龄性别做医学判断，需用户单独提供

[用户属性]

[全局指标]
算法版本:v8
采样率:500Hz 时长:30.7s 总点数:15330
R波检测:32个 平均心率:62bpm 范围:53-76bpm
R波位置(样本索引):3,330,815,1379,1721,2168,2347,2521,3314,3915,4277,4667,5023,5309,5833,6015,6330,6726,7265,7559,8795,9468,9860,10338,11276,11435,11812,12426,13019,13310,14227,14654
RR间期序列(ms，[*]为偏离均值>20%的异常间期，多为早搏/误检):[654*] 970 1128 [684*] 894 [358*] [348*] [1586*] [1202*] [724*] 780 [712*] [572*] 1048 [364*] [630*] 792 1078 [588*] [2472*] [1346*] 784 956 [1876*] [318*] [754*] [1228*] [1186*] [582*] [1834*] 854
RR差值序列(ms):316,158,-444,210,-536,-10,1238,-384,-478,56,-68,-140,476,-684,266,162,286,-490,1884,-1126,-562,172,920,-1558,436,474,-42,-604,1252,-980
SDNN:121.3ms RMSSD:220.7ms pNN50:100.0%
QRS宽度(本地估测,ms):90±18 置信度:高置信
PR间期(本地估测,ms):167±54
QT间期(本地估测,ms):393 QTc(Bazett):399ms QTc(Fridericia):397ms 置信度:低置信
注:低置信间期为生理学先验值（腕表信号物理上限），判读时仅供参考，不应作为强证据
R波平均振幅:0.32mV
R波极性:正向(负向提示导联反接/位置异常)
T/R振幅比:0.92(正常0.1-0.5，<0.1低平，>0.5高尖)
ST段偏移(本地估测,mV):0.002(正常±0.05，>0.1抬高，<-0.1压低)
信号质量:1.00 良好

[节律判别特征]
R波可靠性:可信
RR变异系数:0.131(轻度不齐)
Poincaré散点形态:鱼雷形(轻度不齐)
短-长RR配对数(早搏代偿):4个

[逐秒分段]
时段(s)  R波  振幅范围(mV)  峰峰值(mV)  最大斜率(mV/s)  RMS(mV)
0.0-1.0  2  -0.80~0.95  1.75  118.50  0.44
1.0-2.0  1  -0.83~1.13  1.96  111.50  0.55
2.0-3.0  1  -0.74~0.89  1.63  111.00  0.43
3.0-4.0  1  -0.57~0.57  1.13  136.00  0.24
4.0-5.0  2  -0.53~0.70  1.22  122.50  0.28
5.0-6.0  1  -1.06~0.68  1.74  111.50  0.47
6.0-7.0  1  -0.68~0.55  1.23  98.00  0.23
7.0-8.0  1  -0.48~0.70  1.18  122.00  0.29
8.0-9.0  1  -0.57~0.54  1.11  123.00  0.26
9.0-10.0  1  -0.65~0.58  1.23  108.50  0.26
10.0-11.0  2  -0.46~0.57  1.04  96.50  0.27
11.0-12.0  1  -0.51~0.41  0.92  105.00  0.17
12.0-13.0  2  -0.42~0.35  0.77  128.00  0.13
13.0-14.0  1  -0.78~0.56  1.34  156.50  0.34
14.0-15.0  1  -0.97~0.96  1.93  142.00  0.42
15.0-16.0  1  -0.49~0.31  0.81  147.00  0.12
16.0-17.0  0  -0.43~0.33  0.76  130.50  0.13  ← 本秒无R波(心率<60或代偿间隙)
17.0-18.0  1  -0.42~0.40  0.82  148.50  0.12
18.0-19.0  1  -0.39~0.37  0.75  133.00  0.12
19.0-20.0  1  -0.52~0.35  0.86  126.50  0.12
20.0-21.0  1  -0.55~0.44  0.99  101.00  0.16
21.0-22.0  0  -0.36~0.40  0.76  125.50  0.12  ← 本秒无R波(心率<60或代偿间隙)
22.0-23.0  2  -0.76~0.50  1.26  124.50  0.32
23.0-24.0  1  -0.96~1.26  2.22  99.00  0.55
24.0-25.0  1  -0.36~0.62  0.98  133.50  0.21
25.0-26.0  0  -0.56~0.37  0.94  119.50  0.17  ← 本秒无R波(心率<60或代偿间隙)
26.0-27.0  2  -0.55~0.40  0.95  133.50  0.16  ← 短RR+代偿间隙(早搏可能)
27.0-28.0  0  -0.55~0.58  1.13  133.50  0.26  ← 代偿间隙(配合前秒短RR)
28.0-29.0  1  -0.48~0.57  1.05  200.00  0.23
29.0-30.0  1  -0.45~0.41  0.85  118.00  0.15
逐秒RMS:0.443,0.548,0.426,0.239,0.278,0.474,0.232,0.285,0.263,0.260,0.274,0.168,0.125,0.338,0.420,0.120,0.134,0.121,0.116,0.117,0.161,0.124,0.322,0.552,0.210,0.175,0.163,0.259,0.227,0.150

[AI 解读]
# DeepSeek 返回的原始 JSON（未清洗，可能含 markdown 代码块包裹）
{
  "算法版本": "raw-v1(原始波形直传,未经本地算法)",
  "平均心率": 60,
  "最小心率": 55,
  "最大心率": 65,
  "心率范围": "55-65 bpm",
  "心率稳定性": "RR间期基本规律,心率波动较小",
  "心率置信度": "中",
  "SDNN_ms": 35.0,
  "RMSSD_ms": 28.0,
  "pNN50_pct": 6.0,
  "HRV解读": "SDNN/RMSSD处于正常范围,副交感张力适中",
  "HRV置信度": "中",
  "节律判断": "窦性心律",
  "节律依据": "RR变异系数约0.06,无明显短长配对,Poincaré形态似彗星形",
  "Poincare形态": "彗星形",
  "SD1_ms": 19.8,
  "SD2_ms": 46.0,
  "早搏提示": [],
  "节律置信度": "中",
  "PR间期_ms": "数据不足,无法判断",
  "PR判断": "无法测量（P波不可辨）",
  "PR置信度": "低",
  "QRS宽度_ms": 100,
  "QRS判断": "正常范围(80-120ms)",
  "QRS置信度": "中",
  "QT间期_ms": 380,
  "QTc_ms": 399,
  "QTcFridericia_ms": 396,
  "QTc判断": "正常范围(男<440,女<460)",
  "QTc置信度": "中",
  "间期测量说明": "R波可辨,但QRS起止点和T波终点定位存在误差（采样率500Hz,定位误差±10-20ms）；P波振幅过低无法测量；基线漂移影响间期精度",
  "R波极性": "正向为主,部分负向",
  "T波方向": "与R波同向",
  "ST段": "无明显偏移",
  "R波振幅评估": "相对值200-3000,个体差异大（腕表常见）",
  "信号质量": "中等",
  "噪声段": ["0.0-3.0s 基线漂移明显", "20.0-21.0s 振幅偏低"],
  "异常提示": [],
  "综合解读": "分析显示窦性心律,平均心率约60bpm,RR间期规律,HRV指标在正常范围,未见早搏、房颤等心律失常。QRS宽度及QTc间期均正常。由于腕表单导联精度限制,P波和ST段判断不可靠。整体心电活动未见明显异常。",
  "健康建议": ["保持健康生活方式,规律作息", "如有心悸、胸闷等症状,建议就医复查标准12导联心电图"],
  "免责声明": "本报告基于腕表单导联ECG原始波形由AI直接分析生成,间期/HRV/形态均为AI从波形估测,未经本地算法与临床医师审核,仅供健康参考,不作为医疗诊断依据。如有不适请就医复查标准12导联心电图。"
}
