========== ECG 算法诊断包 ==========
测量时间: 2026-07-17 12:45:50
测量时间戳:1784263550707
采样率:500 Hz
数据点数:15330
时长:30.7 秒
分析方法:heartvoice

[原始 ECG 数据]
# 单位: mV×1000 整数（如 500 = 0.5mV，-1000 = -1.0mV）
# 采样率: 500 Hz，连续采样，无降采样无压缩
# 用途: 助手据此复现本地算法行为（基线漂移/噪声段/R波检测）
# 格式: 每行一个数值，行号=采样点索引（第1行=索引0，即 t=0.000s）
145174
145179
145121
145145
145235
145288
145290
145317
145331
145261
145214
145218
145279
145242
145272
145283
145338
145344
145326
145349
145368
145337
145275
145306
145273
145203
145253
145386
145395
145427
145304
145297
145307
145382
145418
145314
145364
145371
145437
145448
145436
145501
145591
145640
145609
145568
145677
145712
145662
145637
145502
145466
145477
145483
145465
145361
145291
145297
145278
145201
145160
145090
145041
145117
145128
145195
145306
145376
145430
145426
145404
145409
145426
145475
145445
145506
145576
145533
145528
145524
145540
145571
145658
145693
145653
145591
145617
145614
145638
145669
145582
145600
145671
145630
145548
145545
145626
145678
145708
145794
145689
145594
145642
145636
145633
145655
145745
145934
145841
145796
145741
145683
145668
145724
145792
145786
145918
145989
145840
145864
145786
145774
145749
145773
145824
145787
145856
145902
145883
145896
145899
145901
145882
145888
145942
145882
145966
145991
145989
145991
145945
146010
145917
145878
145866
145878
145937
145931
145916
145955
145949
145916
145971
145959
145944
145862
145883
145892
145958
146026
145955
145989
145920
145891
145885
145874
145912
145914
145887
145906
145897
146005
146016
145896
145845
145876
146011
146011
146039
145985
145908
145906
145809
145824
145865
145779
145887
146015
146035
145982
145964
145931
145924
145908
145899
145895
145910
145938
146002
146041
145880
145906
145856
145910
146002
145895
145914
145912
145913
145939
145964
145955
146021
146058
145966
145932
145982
146055
146038
146014
146040
146068
146012
146026
145967
145911
145968
146068
146167
146171
146057
146007
145975
146057
145957
145878
145976
146038
146093
146098
146068
146075
146075
146053
146063
146060
146085
146118
146058
145921
146005
146121
146122
146170
146096
146066
146134
146148
146182
146183
145979
145955
146071
146148
146217
146068
146109
146172
146163
146163
146071
146062
146039
146066
146086
146120
146182
146184
146125
146150
146156
146166
146155
146166
146110
146118
146139
146172
146212
146270
146231
146249
146086
146108
146142
146215
146287
146368
146290
146255
146225
146201
146218
146229
146234
146219
146202
146234
146301
146252
146219
146375
146405
146336
146265
146244
146335
146347
146411
146423
146298
146216
146201
146300
146417
146448
146438
146449
146420
146357
146332
146311
146232
146291
146378
146407
146503
146505
146460
146460
146388
146334
146336
146368
146392
146361
146423
146439
146477
146594
146619
146501
146397
146398
146416
146375
146437
146400
146384
146441
146502
146552
146509
146446
146467
146451
146517
146501
146517
146516
146463
146440
146528
146488
146536
146597
146544
146563
146502
146472
146403
146456
146471
146537
146590
146497
146533
146537
146506
146553
146518
146493
146545
146509
146460
146428
146521
146540
146500
146487
146376
146432
146425
146464
146578
146495
146521
146555
146587
146485
146439
146509
146471
146441
146456
146382
146467
146542
146524
146563
146526
146380
146368
146436
146476
146442
146518
146569
146597
146551
146504
146556
146535
146486
146502
146495
146624
146667
146676
146670
146475
146597
146623
146677
146770
146686
146733
146739
146728
146787
146709
146666
146646
146603
146600
146632
146755
146713
146587
146478
146355
146288
146225
146182
146213
146201
146168
146194
146317
146418
146515
146593
146551
146511
146520
146520
146562
146620
146617
146566
146583
146595
146580
146555
146586
146573
146710
146746
146672
146699
146600
146547
146663
146620
146538
146577
146645
146670
146689
146652
146621
146606
146543
146659
146787
146755
146790
146796
146824
146751
146663
146643
146579
146661
146719
146771
146794
146807
146768
146745
146756
146707
146716
146751
146792
146728
146775
146819
146907
146883
146814
146775
146814
146752
146699
146690
146793
146881
146898
146872
146907
146929
146780
146850
146819
146804
146905
146994
147012
146977
146885
146849
146864
146867
146845
146867
146937
146922
146831
146879
146909
146968
146976
146976
146931
146892
146932
146961
146935
146926
146974
146996
146900
146947
146974
146953
146966
146960
146965
146948
146917
146874
146765
146753
146785
146876
147037
147103
146976
146947
146894
146869
146770
146781
146777
146682
146740
146776
146890
146908
146929
146867
146812
146776
146743
146683
146827
146840
146896
146944
146887
146816
146770
146766
146789
146761
146799
146875
146904
146849
146936
146988
146851
146812
146761
146751
146811
146866
146888
146859
146891
146867
146808
146832
146895
146884
146914
146893
146923
146897
146894
146923
146935
146891
146891
146880
146937
146962
146898
146881
146884
146941
146835
146825
146864
146863
147001
146946
146912
146954
146980
146898
146747
146804
146888
146836
146813
146914
146957
146975
146916
146881
146880
146863
146902
146896
146948
146942
146932
146848
146790
146888
146881
146931
146910
146824
146869
146921
146953
146949
146926
146943
146921
147007
146960
146925
146959
147073
147039
146962
146954
146934
146908
146916
146891
146860
146957
147098
147157
147080
147057
147057
147058
147020
147002
146957
147038
147014
147054
147078
147045
147067
147058
147028
147034
147021
147022
147050
147125
147108
147073
147065
147081
147089
147073
147074
147052
147073
147109
147097
147023
147101
147073
147092
147137
147047
147043
147097
147152
147103
147133
147122
147061
147052
147072
147042
147109
147226
147277
147251
147194
147214
147184
147139
147126
147146
147143
147134
147132
147105
147120
147188
147180
147160
147150
147149
147231
147256
147216
147234
147194
147136
147136
147181
147274
147169
147174
147200
147263
147326
147299
147306
147188
147248
147281
147205
147326
147372
147310
147323
147264
147297
147341
147293
147303
147302
147321
147325
147218
147293
147255
147225
147203
147128
147114
147149
147310
147360
147375
147403
147299
147232
147181
147221
147278
147225
147297
147335
147313
147244
147222
147285
147244
147225
147220
147290
147241
147258
147281
147331
147390
147312
147249
147272
147346
147294
147275
147396
147390
147513
147574
147541
147500
147474
147417
147464
147490
147509
147510
147495
147386
147311
147260
147198
147155
147076
147119
147196
147239
147127
147088
147146
147121
147093
147143
147259
147296
147346
147350
147362
147274
147325
147392
147427
147493
147444
147399
147494
147572
147459
147392
147414
147342
147304
147381
147465
147454
147602
147542
147543
147471
147501
147479
147500
147430
147359
147387
147445
147466
147448
147535
147526
147584
147592
147473
147462
147463
147467
147548
147605
147632
147603
147458
147436
147446
147428
147563
147540
147637
147709
147651
147534
147519
147458
147439
147461
147544
147666
147638
147660
147708
147710
147667
147671
147596
147530
147573
147634
147672
147733
147653
147682
147630
147676
147708
147651
147659
147743
147773
147730
147694
147676
147668
147754
147743
147596
147695
147725
147757
147764
147692
147671
147657
147686
147703
147646
147708
147777
147760
147747
147651
147651
147644
147641
147600
147574
147593
147620
147641
147673
147696
147732
147631
147677
147674
147646
147613
147581
147615
147641
147563
147601
147711
147685
147568
147507
147587
147639
147629
147628
147580
147563
147656
147641
147598
147566
147595
147617
147615
147655
147679
147642
147686
147687
147686
147593
147617
147712
147716
147727
147687
147693
147725
147724
147657
147684
147713
147738
147812
147859
147773
147771
147688
147745
147720
147739
147783
147800
147857
147833
147781
147782
147801
147809
147706
147691
147721
147766
147855
147993
147866
147805
147820
147764
147752
147697
147704
147698
147751
147772
147882
147906
147912
147896
147773
147778
147787
147762
147737
147759
147725
147768
147687
147740
147816
147845
147853
147889
147903
147907
147874
147777
147784
147707
147676
147674
147698
147814
147927
147926
147911
147878
147825
147791
147770
147748
147789
147862
147885
147816
147778
147866
147862
147774
147889
147856
147718
147721
147832
147849
147849
147929
148116
148001
147835
147826
147836
147898
147963
147899
147921
147919
147917
147838
147839
147856
147898
147942
148019
148066
147977
147995
148017
148035
148086
147998
147974
148001
148026
148032
148068
148153
148018
148007
148020
148085
148152
148046
148101
148134
148134
148226
148162
148142
148138
148029
147996
148066
148116
148142
148146
148210
148193
148087
148072
148121
148142
148132
148293
148297
148232
148250
148250
148144
148097
147971
147995
148086
148185
148217
148252
148237
148220
148198
148187
148196
148193
148260
148328
148238
148212
148282
148181
148148
148181
148080
148097
148205
148272
148276
148232
148179
148180
148177
148248
148242
148244
148301
148138
148124
148085
148161
148213
148333
148318
148278
148207
148193
148296
148313
148237
148257
148261
148172
148192
148202
148300
148348
148436
148348
148273
148279
148395
148273
148304
148279
148281
148352
148292
148350
148453
148461
148443
148436
148494
148516
148458
148494
148516
148465
148476
148565
148621
148546
148497
148426
148383
148361
148272
148189
148152
148148
148058
147960
148093
148106
148075
148109
148191
148243
148262
148305
148306
148261
148259
148212
148321
148447
148527
148448
148411
148556
148491
148451
148399
148353
148376
148417
148383
148414
148496
148528
148560
148516
148434
148403
148473
148528
148509
148517
148516
148555
148466
148409
148451
148472
148511
148623
148705
148596
148614
148644
148616
148565
148623
148511
148498
148636
148608
148575
148612
148695
148700
148788
148742
148685
148701
148726
148661
148638
148614
148714
148698
148720
148688
148623
148661
148766
148813
148788
148780
148803
148900
148833
148785
148780
148854
148732
148896
148842
148738
148682
148715
148859
148947
148898
148890
148829
148900
148956
148913
148934
148924
148825
148801
148824
148882
148886
148865
148902
148909
148904
148963
148842
148813
148812
148847
148773
148798
148818
148846
148879
148830
148784
148863
148841
148895
148845
148794
148838
148739
148848
148857
148799
148792
148805
148799
148762
148776
148799
148816
148816
148837
148747
148770
148739
148770
148772
148817
148904
148935
148891
148776
148830
148841
148798
148768
148827
148903
149011
148966
148945
148924
148950
148919
148844
148814
148831
148966
148962
148900
148946
148960
148925
148882
148844
148913
148906
148940
148961
148949
149055
149066
148990
148956
148917
148932
148882
148869
148922
149043
149076
149098
149008
148973
148956
149026
149069
149089
149008
148986
149068
149127
148905
148851
148893
148947
148935
149012
149038
149036
149042
149040
148978
148917
148879
148946
148961
149007
149067
149035
149132
149162
149123
149079
148943
148919
148991
148986
149020
149035
149026
149052
149080
149013
149072
149114
149123
149130
149182
149124
149072
149110
149076
149078
149067
149048
149024
149011
149096
149187
149177
149188
149160
149104
149055
149087
149118
149121
149102
149128
149159
149228
149247
149216
149215
149192
149194
149262
149280
149186
149201
149225
149246
149222
149188
149282
149320
149302
149288
149231
149187
149271
149259
149150
149166
149235
149345
149338
149343
149298
149304
149307
149307
149223
149183
149356
149386
149359
149341
149332
149321
149287
149297
149329
149340
149321
149294
149294
149258
149284
149317
149370
149414
149365
149286
149262
149274
149280
149252
149246
149312
149493
149470
149407
149321
149310
149300
149225
149307
149371
149584
149522
149451
149376
149307
149292
149344
149419
149453
149445
149389
149386
149370
149328
149355
149410
149484
149526
149421
149365
149479
149541
149458
149354
149333
149411
149356
149343
149393
149407
149440
149477
149423
149443
149370
149385
149376
149381
149453
149429
149429
149441
149530
149487
149398
149426
149460
149486
149455
149508
149521
149493
149436
149426
149399
149526
149526
149481
149464
149476
149579
149554
149472
149546
149539
149604
149644
149574
149602
149595
149653
149760
149791
149703
149690
149703
149670
149675
149757
149749
149723
149634
149662
149652
149424
149358
149340
149353
149351
149269
149333
149345
149388
149379
149429
149553
149501
149499
149523
149521
149568
149641
149669
149658
149639
149683
149692
149701
149757
149694
149665
149660
149685
149667
149722
149712
149694
149728
149782
149800
149831
149781
149709
149711
149770
149807
149824
149938
149840
149840
149834
149846
149832
149774
149806
149876
149866
149867
149824
149782
149850
149917
149960
149979
149825
149820
149883
149911
149943
149857
149917
149940
149938
149926
149812
149753
149806
149915
149983
149971
150067
150077
150070
150027
149934
149999
149980
149986
149991
149986
150082
150034
149995
150055
150057
150086
150028
150055
150091
150028
150042
150024
149962
150013
149982
150029
150051
150053
150084
149997
150034
150092
150057
150006
149956
149989
149978
149966
150015
150039
150009
149999
150038
150015
150019
150039
150021
150105
150086
149991
149960
150009
150050
150020
150018
150057
150062
150063
149999
149970
150024
150052
150107
150052
149986
150026
150030
150009
150010
150034
149977
149961
149962
149981
150058
150145
150102
150042
150092
150055
150089
150075
149996
150086
150091
150095
150113
150086
150144
150157
150026
150095
150134
150141
150106
150114
150150
150112
150159
150103
150154
150167
150176
150158
150139
150135
150097
150100
150122
150190
150250
150233
150125
150141
150137
150159
150169
150216
150231
150193
150195
150220
150247
150188
150065
150083
150128
150195
150243
150248
150227
150273
150235
150160
150085
150085
150052
150077
150159
150223
150272
150218
150232
150218
150134
150145
150185
150082
150073
149992
150011
150166
150337
150367
150184
150201
150204
150217
150103
150089
150115
150101
150110
150223
150264
150258
150262
150164
150222
150221
150250
150258
150289
150223
150087
150166
150212
150230
150272
150273
150357
150317
150272
150228
150233
150206
150135
150179
150306
150343
150329
150293
150325
150262
150128
150193
150261
150295
150397
150401
150476
150531
150454
150247
150209
150180
150244
150318
150324
150435
150459
150424
150409
150391
150358
150375
150330
150298
150313
150293
150352
150412
150491
150437
150199
150299
150397
150339
150386
150359
150304
150262
150303
150292
150371
150430
150401
150442
150441
150391
150466
150460
150397
150390
150371
150332
150416
150491
150503
150470
150395
150434
150467
150446
150362
150369
150366
150379
150466
150541
150480
150460
150380
150382
150274
150276
150391
150437
150498
150554
150482
150458
150467
150402
150301
150245
150254
150198
150345
150391
150408
150379
150310
150293
150388
150420
150372
150337
150313
150339
150361
150322
150404
150439
150269
150281
150246
150330
150361
150361
150418
150409
150381
150383
150316
150373
150394
150355
150368
150366
150379
150351
150449
150497
150419
150505
150593
150573
150556
150576
150674
150566
150461
150490
150436
150444
150414
150391
150395
150258
150160
150118
150083
150041
149962
150014
150082
150091
150160
150153
150218
150263
150257
150292
150260
150316
150323
150337
150376
150412
150346
150344
150468
150541
150367
150379
150388
150435
150469
150396
150478
150518
150524
150520
150410
150396
150383
150398
150429
150473
150494
150593
150572
150592
150616
150639
150584
150512
150552
150475
150524
150622
150725
150700
150662
150627
150547
150543
150498
150555
150713
150666
150667
150643
150627
150689
150669
150595
150580
150683
150784
150813
150791
150771
150708
150745
150704
150673
150646
150626
150730
150749
150815
150840
150718
150764
150809
150696
150774
150803
150760
150779
150780
150782
150644
150681
150669
150636
150720
150799
150932
150881
150845
150782
150729
150772
150790
150749
150696
150713
150858
150946
150869
150744
150691
150766
150739
150712
150758
150808
150770
150851
150793
150812
150751
150745
150848
150735
150684
150716
150691
150715
150840
150797
150734
150749
150741
150772
150760
150737
150650
150647
150741
150796
150708
150790
150717
150676
150632
150608
150621
150746
150826
150803
150660
150748
150747
150671
150732
150643
150679
150661
150668
150746
150769
150758
150724
150698
150778
150908
150836
150692
150746
150783
150748
150664
150673
150725
150780
150786
150737
150807
150743
150711
150679
150784
150776
150793
150827
150800
150794
150813
150862
150859
150733
150705
150636
150648
150709
150679
150741
150788
150837
150844
150800
150809
150803
150769
150780
150796
150853
150810
150763
150840
150786
150818
150800
150755
150817
150819
150802
150821
150821
150824
150755
150743
150796
150870
150874
150810
150854
150929
150856
150893
150853
150845
150791
150881
150917
150897
150779
150825
150863
150899
150856
150880
150941
150928
150931
150949
151030
151036
150931
150918
150853
150801
150892
150977
151045
151107
151093
151071
151087
151050
150978
150985
151034
151003
150977
151016
151097
151105
151022
151019
150952
150938
151014
151046
151082
151025
151081
151149
151137
151091
151001
150946
150945
150937
150943
150965
151173
151185
151067
151046
151015
151025
150974
151013
151018
151004
151062
151074
151126
151156
150988
151009
150943
150906
150964
151042
151085
151071
151085
151074
151077
151058
151022
150990
150948
151043
151123
151109
151106
151105
151033
151017
151034
151048
151013
150997
151018
151053
151078
151039
151050
150948
150967
151093
151103
151061
151102
151103
151065
151069
150965
150982
151022
151042
151067
151065
151049
151059
151088
151108
151022
151039
151058
151042
151100
151085
151113
151080
151026
151056
151043
151082
151119
151101
151061
151161
151212
151179
151156
151158
151078
151078
151093
151115
151071
151122
151272
151223
151291
151361
151354
151404
151426
151400
151433
151363
151367
151330
151327
151343
151285
151348
151299
151133
150940
150889
150932
150942
150967
150907
150903
150968
150946
150992
150992
150986
151012
151150
151183
151229
151226
151217
151248
151181
151176
151154
151229
151266
151293
151287
151280
151366
151357
151280
151317
151385
151377
151400
151345
151393
151394
151413
151382
151368
151405
151443
151452
151422
151396
151451
151423
151385
151366
151393
151470
151442
151510
151562
151504
151502
151474
151498
151552
151560
151413
151536
151665
151553
151507
151539
151542
151448
151523
151594
151663
151659
151645
151624
151676
151729
151657
151662
151624
151640
151630
151654
151723
151731
151645
151651
151649
151643
151612
151630
151717
151682
151677
151703
151761
151732
151653
151640
151638
151629
151682
151718
151756
151748
151743
151757
151702
151713
151694
151668
151768
151724
151766
151782
151708
151721
151674
151670
151681
151664
151675
151713
151818
151794
151719
151752
151682
151640
151606
151640
151657
151705
151785
151813
151794
151740
151637
151649
151636
151670
151667
151723
151769
151783
151754
151740
151701
151678
151670
151624
151626
151662
151660
151786
151822
151788
151771
151812
151749
151675
151670
151727
151801
151815
151775
151888
151871
151782
151770
151784
151750
151737
151769
151808
151872
151962
151855
151810
151861
151845
151837
151863
151866
151897
151931
151953
151857
151803
151823
151895
151932
151925
151891
152008
151958
151980
151933
151973
151906
151879
151848
151803
151917
151901
151976
152033
152103
152087
152017
151979
152016
152001
152030
151984
151887
151903
151892
151971
152094
152017
152020
151977
151993
152003
152081
152025
151922
151952
151982
152003
151953
151932
152032
152084
152027
151917
151922
151921
152000
152035
151986
151955
151973
152045
152098
152072
152083
152113
152020
152017
152027
152098
152152
152079
152032
152057
152057
152098
152161
152108
152075
152153
152164
152182
152177
152177
152099
152042
152070
152201
152307
152203
152143
152168
152191
152224
152191
152114
152043
152083
152107
152165
152270
152269
152336
152286
152199
152253
152170
152184
152188
152241
152315
152306
152190
152168
152194
152364
152384
152338
152260
152258
152339
152385
152311
152359
152356
152362
152301
152181
152184
152312
152466
152518
152538
152430
152295
152329
152375
152374
152378
152376
152399
152394
152397
152428
152397
152369
152370
152398
152405
152383
152425
152521
152574
152598
152578
152529
152447
152416
152369
152474
152527
152603
152594
152590
152513
152484
152445
152492
152515
152457
152468
152514
152587
152587
152431
152385
152364
152397
152374
152480
152609
152608
152589
152564
152434
152470
152520
152445
152396
152362
152433
152635
152628
152585
152538
152468
152451
152461
152503
152581
152621
152536
152568
152579
152611
152680
152606
152538
152548
152595
152691
152754
152802
152866
152770
152742
152718
152796
152781
152740
152823
152808
152719
152580
152497
152474
152424
152470
152390
152315
152387
152386
152426
152510
152490
152487
152424
152448
152459
152474
152535
152671
152748
152805
152753
152686
152671
152696
152790
152669
152659
152608
152638
152670
152721
152848
152769
152729
152701
152711
152773
152834
152781
152760
152774
152864
152826
152757
152724
152722
152856
152823
152819
152869
152821
152830
152851
152873
152847
152767
152897
152980
152937
152896
152819
152819
152796
152844
152835
152797
152912
153071
153023
153002
152950
152933
152890
152935
152985
152895
152924
152959
153024
153047
153044
152997
152958
152976
152910
152845
152893
152961
152986
153038
153000
153065
153001
152991
153015
153043
153031
153056
153058
153008
152989
153025
153016
153019
153019
153007
153076
153117
153137
153174
153071
153073
153024
153045
153018
152979
153003
152989
153075
153176
153075
152963
152949
153027
153042
153000
153064
153101
153099
153073
152985
152999
152975
152988
152986
152936
152984
153009
153070
153066
153015
152997
152969
152920
152947
152978
153015
152969
152949
153048
153076
152970
152923
152940
153001
152982
152996
153011
153029
153059
153025
152986
152944
152942
152882
152837
152937
152957
153053
153078
153068
153074
153048
152929
152943
152928
153028
153105
152970
153012
153020
152969
152876
152951
152911
152940
153041
153015
153040
152991
152988
152955
152882
152884
152935
152919
152957
153041
153005
152983
152998
153055
153051
152986
152863
152853
152929
152949
152970
153000
153017
153058
152983
152978
152903
152904
152931
152973
152908
152907
152859
152923
153007
153007
152986
152892
152907
152887
152961
153023
153005
152936
152922
152915
152912
152896
152978
153067
153033
152982
152967
152973
152988
152931
152930
152954
152977
153008
152957
152940
152900
152907
152987
152888
152867
152860
153005
153069
153057
152983
152964
152947
152944
152894
152878
152890
152936
153010
153100
153037
152999
152980
152940
152905
152892
152914
153018
153055
153038
153034
152995
153038
153003
152922
152859
152944
153091
153141
153099
152962
152979
152983
153025
153008
153024
153022
153012
152985
153001
152998
152934
153037
153063
153010
153064
153017
153011
153061
153099
153076
152916
152920
152918
152939
153032
153032
153105
153134
153104
153046
153059
153103
153144
153091
153038
153022
152990
153064
152994
153014
153034
153078
153061
153017
153041
152993
153031
153027
153023
153078
153062
153047
152928
152939
152994
152957
152989
152982
153022
153136
153073
153046
153055
153057
153019
152929
152993
153025
153088
153123
153014
153025
152968
152911
152886
152850
152964
153041
153061
153066
153062
152967
152907
152927
152927
152937
153010
153031
152982
152978
152958
152969
152898
152835
152894
152917
152951
152995
153020
153016
152995
152988
152993
153046
152960
152885
152961
153014
152938
152974
153008
153022
152903
152900
152961
152937
153002
153025
153103
153144
153136
153193
153136
153054
153120
153128
153130
153165
153079
152998
152922
152834
152781
152742
152764
152752
152688
152625
152616
152620
152583
152684
152635
152544
152619
152615
152724
152714
152748
152798
152810
152770
152814
152799
152797
152775
152819
152868
152895
152856
152738
152741
152790
152825
152919
152923
152838
152795
152861
152867
152808
152882
152866
152866
152800
152661
152775
152976
153001
153001
152873
152883
152870
152847
152853
152790
152817
152807
152881
152918
152866
152947
152918
152859
152847
152812
152878
152867
152911
152954
152990
153053
152979
152920
152944
152756
152726
152899
153011
153081
153086
153024
152918
152961
152944
152890
152930
152969
152943
152986
152966
153008
153031
153053
153047
152983
152945
152939
152989
152984
152987
152946
153024
152960
152952
152995
153002
152966
152971
153015
152982
153011
153079
153042
152973
152830
152915
153052
153014
152992
152918
152950
152903
152914
152892
152860
152940
152982
152939
152903
152888
152868
152844
152857
152909
152907
152845
152869
152925
152868
152744
152796
152815
152795
152799
152775
152841
152935
152918
152894
152882
152907
152850
152787
152783
152778
152868
152900
152886
152937
152880
152892
152869
152807
152788
152665
152770
152839
152915
152869
152899
152894
152862
152796
152845
152795
152871
152913
152849
152849
152836
152917
152883
152885
152848
152798
152777
152823
152862
152976
153000
153003
152916
152824
152815
152852
153016
153002
152991
152930
152862
152808
152817
152827
152919
152914
152914
152945
152894
152888
153001
153007
152973
152884
152878
152844
152914
152965
153011
153004
152872
152895
152872
152836
152853
152870
152920
152943
152989
153033
152921
152888
152903
152824
152778
152796
152862
152949
152995
153021
152927
152928
152929
152959
152908
152860
152925
152995
152960
152944
152938
152960
152982
152979
152993
152936
152922
152929
153016
153022
153034
153042
153008
153010
153038
152948
152901
152960
152997
152948
153021
153134
153115
153057
153041
152943
153002
153063
153041
153049
152951
153030
153095
153008
153041
153074
153100
153031
153089
153068
153034
153064
153055
152994
152985
153051
153100
153155
153094
153069
153011
153040
153095
153153
153150
153070
153102
153200
153188
153032
152989
153013
153067
153016
152968
152969
153001
153035
153103
153113
153032
153050
153056
153031
153001
153037
153054
153166
153199
153130
153106
153091
153099
153126
153101
153068
153087
153121
153129
153110
153070
153063
153076
153066
153098
153126
153136
153059
153059
153122
153095
153168
153252
153282
153176
153066
153053
153070
153166
153140
153054
153022
153050
153055
152978
152989
153111
153141
153103
153191
153172
153138
153043
153038
153040
152996
153111
153212
153264
153128
153094
153105
153018
153000
153004
153028
153113
153112
153142
153151
153077
153134
153111
153064
153082
153088
153132
153129
153169
153150
153167
153217
153193
153186
153274
153222
153173
153171
153273
153312
153327
153302
153269
153185
153095
153063
153096
153066
152973
152824
152768
152833
152793
152876
152814
152796
152790
152839
152932
152982
153051
152985
152968
153043
153059
152992
153039
153073
153182
153284
153244
153223
153145
153115
153122
153139
153230
153225
153214
153221
153171
153232
153166
153096
153166
153153
153170
153231
153282
153304
153315
153262
153244
153248
153251
153262
153243
153168
153282
153319
153268
153299
153247
153266
153239
153235
153294
153350
153355
153285
153199
153261
153266
153250
153186
153191
153251
153334
153418
153392
153280
153329
153294
153220
153237
153234
153303
153285
153325
153307
153365
153424
153441
153334
153212
153147
153194
153249
153242
153290
153346
153390
153314
153329
153328
153282
153269
153274
153331
153340
153359
153434
153362
153289
153276
153214
153265
153354
153445
153308
153291
153400
153373
153226
153261
153286
153297
153313
153320
153315
153363
153370
153339
153288
153262
153256
153191
153223
153275
153296
153366
153385
153364
153235
153179
153095
153192
153331
153298
153294
153245
153267
153301
153200
153147
153129
153124
153207
153409
153393
153208
153250
153244
153233
153175
153120
153166
153221
153239
153316
153250
153288
153209
153211
153192
153179
153299
153324
153269
153366
153351
153383
153359
153260
153207
153225
153220
153250
153311
153337
153284
153301
153291
153262
153369
153379
153352
153327
153376
153382
153405
153400
153372
153333
153319
153278
153301
153388
153498
153521
153463
153356
153398
153314
153299
153280
153373
153462
153475
153435
153399
153445
153558
153499
153469
153386
153419
153398
153414
153416
153386
153418
153398
153451
153536
153467
153450
153412
153445
153491
153484
153441
153411
153372
153409
153472
153523
153537
153426
153519
153535
153533
153496
153475
153356
153385
153469
153499
153495
153545
153389
153329
153367
153389
153395
153471
153631
153600
153523
153495
153480
153545
153591
153508
153408
153364
153445
153533
153514
153571
153549
153636
153638
153599
153511
153483
153511
153566
153641
153522
153449
153465
153449
153472
153487
153490
153696
153707
153633
153646
153597
153583
153607
153641
153598
153493
153524
153524
153520
153604
153577
153597
153617
153661
153649
153610
153610
153703
153603
153643
153668
153617
153602
153595
153539
153545
153655
153640
153634
153653
153648
153693
153585
153525
153521
153552
153672
153671
153704
153701
153646
153627
153644
153654
153697
153632
153593
153558
153652
153760
153733
153744
153684
153641
153655
153690
153733
153792
153730
153707
153692
153690
153703
153661
153573
153500
153540
153592
153763
153927
153867
153786
153760
153722
153767
153737
153693
153682
153668
153728
153770
153905
153910
153684
153652
153647
153733
153795
153820
153853
153782
153771
153794
153732
153700
153580
153599
153656
153655
153684
153685
153696
153767
153761
153723
153717
153707
153695
153716
153731
153720
153750
153721
153754
153743
153651
153593
153664
153762
153830
153725
153732
153804
153731
153731
153726
153738
153713
153771
153844
153791
153791
153838
153898
153952
153923
153926
153960
153959
153926
153911
153935
153901
153861
153829
153749
153753
153690
153639
153565
153533
153476
153493
153531
153495
153531
153553
153610
153650
153660
153643
153716
153780
153789
153758
153697
153748
153809
153824
153807
153826
153812
153858
153863
153903
153809
153787
153819
153858
153956
153989
153999
153883
153906
153822
153821
153797
153813
153829
153844
153767
153836
153993
153941
153896
153887
153901
153917
153940
153941
153912
154000
153947
153909
153956
153877
153836
153789
153896
154032
154010
153996
154008
154058
153975
153907
153897
153915
153929
153987
153925
153973
154045
153964
153938
153907
153932
153969
154023
154072
154107
154051
154059
154058
154019
153951
153931
153931
153986
154059
154003
154056
154087
154120
154186
154107
154071
154091
154032
153993
153978
154036
154138
154148
154081
154036
154047
154034
154082
154128
154077
154112
154099
154045
153972
153920
153960
154006
154136
154211
154167
154174
154155
154031
153968
153891
153874
153900
153895
154061
154115
154168
154143
154047
153974
153923
153896
153915
153929
154045
154012
154004
154018
154006
153873
153900
153941
153939
153987
154040
153986
153987
153923
153935
153979
153962
154017
153971
153994
154085
154006
154005
154081
154125
154019
154009
154050
153951
153923
153988
153970
154051
154162
154068
153997
153977
154019
154020
154035
154035
154062
154046
154067
154075
154040
153954
153967
153994
154006
154087
154050
154066
154117
154067
154078
154006
154106
154057
154020
154142
154031
153974
154030
154012
154009
154057
154029
154014
154057
154064
154010
154022
153919
153971
154132
154135
154120
154039
154039
154052
154124
154228
154225
154137
154111
154066
154005
153967
153960
154073
154129
154176
154190
154099
154077
153993
153998
154037
154133
154218
154180
154219
154269
154172
154081
154082
154031
154096
154089
154052
154065
154202
154248
154205
154225
154058
154090
154197
154222
154155
154129
154254
154151
154191
154198
154128
154159
154147
154160
154167
154101
154152
154220
154296
154279
154126
154159
154159
154182
154169
154149
154221
154192
154187
154095
154031
154097
154214
154174
154159
154105
154119
154138
154211
154199
154134
154121
154169
154191
154245
154169
154151
154042
154094
154104
154101
154200
154305
154265
154242
154155
154224
154244
154218
154091
154023
154086
154099
154199
154217
154215
154248
154176
154189
154139
154093
154148
154233
154173
154156
154123
154163
154147
154167
154177
154112
154166
154232
154193
154148
154126
154224
154313
154299
154246
154215
154139
154189
154229
154153
154171
154196
154193
154163
154157
154105
154185
154291
154213
154115
154158
154242
154249
154258
154299
154185
154137
154080
154012
154049
154113
154215
154283
154326
154312
154275
154219
154210
154156
154149
154126
154194
154197
154170
154064
154049
154090
154164
154117
154224
154252
154237
154227
154194
154064
154057
154130
154120
154179
154156
154167
154074
154175
154189
154161
154058
154096
154161
154100
154098
154135
154198
154210
154262
154177
154073
154158
154279
154279
154328
154327
154369
154372
154336
154314
154244
154172
154152
154086
154072
154046
153996
153973
153965
153974
153869
153867
153833
153827
153822
153780
153829
153839
153900
153854
153906
154031
154062
153983
154042
154081
154116
154084
154048
154003
153876
153866
153943
154046
154130
154060
154157
154187
154143
154112
154073
154064
154077
154109
154083
154079
154134
154227
154167
154206
154146
154107
154140
154163
154086
154085
154188
154188
154258
154170
154149
154085
154156
154175
154223
154155
154173
154139
154174
154211
154203
154177
154099
154147
154164
154157
154263
154266
154221
154199
154123
154172
154201
154185
154220
154265
154372
154382
154377
154292
154026
154101
154243
154313
154286
154277
154352
154362
154238
154216
154195
154217
154295
154290
154235
154238
154232
154273
154319
154274
154228
154190
154189
154269
154289
154263
154350
154354
154361
154336
154241
154179
154197
154214
154344
154270
154287
154286
154214
154177
154142
154216
154224
154177
154211
154257
154302
154342
154340
154256
154018
154080
154064
154113
154186
154241
154237
154209
154255
154271
154191
154151
154178
154172
154139
154148
154215
154220
154185
154215
154156
154144
154118
154207
154193
154194
154220
154319
154328
154247
154141
154208
154143
154113
154254
154217
154203
154264
154294
154343
154297
154318
154253
154124
154193
154177
154185
154131
154045
154179
154340
154383
154383
154254
154150
154158
154209
154255
154331
154307
154197
154193
154183
154137
154152
154177
154235
154303
154256
154258
154145
154143
154221
154195
154186
154217
154184
154151
154198
154232
154281
154224
154159
154122
154131
154097
154225
154308
154259
154213
154136
154122
154129
154129
154138
154204
154263
154269
154229
154179
154127
154163
154233
154113
154103
154157
154151
154113
154133
154222
154141
154236
154107
154109
154220
154217
154232
154304
154310
154133
154086
154069
154082
154149
154237
154274
154226
154210
154228
154210
154223
154228
154243
154167
154183
154071
154158
154302
154246
154205
154164
154144
154177
154197
154209
154214
154237
154219
154263
154295
154261
154188
154218
154303
154200
154143
154207
154248
154300
154228
154186
154261
154246
154173
154152
154187
154179
154284
154328
154310
154263
154244
154254
154242
154191
154189
154249
154240
154217
154273
154234
154240
154289
154292
154318
154275
154322
154212
154219
154151
154062
154135
154160
154232
154284
154326
154266
154324
154341
154316
154234
154227
154178
154102
154175
154156
154165
154212
154238
154287
154254
154300
154226
154264
154207
154214
154249
154282
154292
154228
154148
154171
154115
154125
154157
154145
154209
154237
154215
154179
154116
154108
154116
154062
154126
154165
154243
154205
154151
154257
154139
154077
154061
154067
154139
154204
154224
154293
154188
154147
154082
154098
154071
154030
154120
154138
154166
154149
154109
154057
154012
154037
154019
154088
154234
154100
154139
154184
154222
154263
154183
154130
154094
154084
154098
154145
154233
154269
154319
154226
154232
154392
154360
154238
154305
154270
154195
154230
154279
154172
154024
153974
153825
153763
153719
153674
153685
153823
153897
153918
153886
153911
153900
153854
153890
153911
153911
153949
153951
153981
154003
154034
154044
154103
154134
154081
154106
154067
153962
153924
154005
154014
154026
154057
154070
154086
154147
154036
153981
153930
153893
153836
153893
153990
154037
154047
154015
154027
153980
153985
153928
153911
154023
154089
154077
154070
154011
154032
154036
154017
154060
154118
154039
154094
154017
153971
154096
154175
154029
153972
153944
154045
154006
154019
154099
154082
154098
154091
154091
154080
154061
154074
154033
154070
154080
154079
154103
154107
154117
154068
153979
154059
154105
154146
154159
154149
154126
154104
154108
154174
154044
153957
154005
154092
154171
154192
154156
154148
154177
154113
154084
154090
154012
153995
154042
154080
154060
154112
154108
154097
154059
154055
154029
154055
154016
153998
153934
153939
153923
153946
153956
154029
154140
154188
154036
153920
153979
154030
153983
153979
153893
153926
153993
153990
153987
153972
154000
153944
153964
154005
153956
153920
153836
153832
153848
153861
153902
153856
153912
154014
154091
154068
153941
153921
153923
153880
153935
153920
153880
153968
153964
153942
153930
153941
153825
153870
153973
154011
153992
154021
153918
153948
153938
153853
153849
153874
153956
153938
153961
153946
153912
153931
153969
153860
153872
153904
153857
153861
153924
153933
153895
153904
153883
153857
153877
153884
153946
153922
153921
153924
153852
153932
153921
153796
153775
153766
153848
153864
153843
153858
153839
153865
153892
153850
153800
153729
153830
153842
153853
153946
153935
153956
153942
153868
153870
153879
153943
153971
153844
153879
153822
153847
153908
153821
153850
153943
153997
153953
153934
153969
153924
153881
153877
153872
153909
153939
153906
153994
153950
153908
153909
153926
153877
153886
153964
153943
154038
154047
154033
154014
153927
153920
153948
153926
153916
153905
153954
153986
154005
154002
153959
153991
153960
153937
153995
153956
153916
154029
154093
154091
154044
153897
153801
153838
153952
153992
154023
153994
154076
153983
153941
153921
153854
153865
153909
153928
154077
154012
153979
153966
153938
153996
153967
153968
153933
153857
153911
154003
154053
153971
153922
153877
153854
153908
153986
153963
154078
154030
154038
154005
153945
153929
153978
153974
153995
153996
153947
153972
153969
153962
153978
153963
153932
153991
153956
153943
153972
154019
154058
154010
153968
154000
154009
153987
153914
153896
153952
154043
154045
154028
153941
153962
153972
153932
153975
153988
153976
153928
153887
153997
153987
154047
153960
153924
153920
153837
153900
154011
153968
153988
153979
153985
153922
153866
153866
153869
153958
154033
153997
153998
153902
153845
153811
153800
153856
153846
154010
154043
154120
154094
154086
154042
153970
153978
154064
154090
154165
154262
154293
154334
154257
154207
154195
154213
154178
154190
154209
154177
154128
154110
153984
153862
153704
153684
153688
153744
153783
153902
153948
153976
153990
153980
153949
153915
153890
153883
153960
154003
154090
154215
154172
154171
154059
154061
154111
154033
154188
154305
154292
154219
154111
154065
154088
154174
154295
154318
154280
154187
154183
154189
154170
154206
154182
154220
154261
154204
154256
154252
154260
154224
154207
154251
154145
154096
154097
154129
154290
154399
154372
154282
154188
154196
154241
154231
154213
154163
154225
154225
154254
154317
154293
154343
154287
154260
154281
154265
154306
154331
154366
154328
154326
154335
154293
154273
154287
154233
154220
154273
154301
154413
154453
154392
154394
154383
154376
154336
154285
154331
154371
154354
154356
154369
154509
154477
154296
154291
154338
154388
154436
154426
154380
154366
154380
154338
154329
154355
154409
154422
154382
154330
154251
154307
154337
154283
154290
154214
154260
154319
154310
154360
154365
154320
154255
154206
154221
154176
154252
154245
154278
154286
154212
154139
154122
154148
154124
154127
154214
154184
154254
154250
154229
154253
154208
154138
154133
154154
154151
154147
154175
154209
154193
154132
154044
154044
154141
154083
154108
154213
154225
154195
154151
154192
154090
154033
154019
154001
154080
154225
154229
154216
154226
154228
154174
154127
154048
153988
154128
154187
154166
154152
154175
154188
154241
154150
154117
154109
154073
154192
154185
154238
154187
154165
154189
154159
154122
154014
154037
154121
154244
154169
154104
154241
154254
154198
154174
154070
154080
154093
154138
154195
154188
154234
154143
154132
154180
154138
154139
154112
154158
154233
154159
154063
154061
154073
154049
154085
154187
154147
154174
154138
154143
154160
154191
154199
154093
154056
154150
154154
154152
154159
154123
154156
154192
154130
154138
154187
154185
154181
154143
154166
154135
154173
154137
154131
154127
154084
154192
154349
154209
154227
154155
154131
154076
154152
154148
154097
154180
154192
154218
154279
154234
154201
154160
154160
154104
154088
154182
154220
154253
154215
154125
154102
154143
154258
154136
154077
154111
154164
154133
154169
154158
154179
154239
154198
154098
154065
154129
154192
154171
154161
154149
154221
154227
154189
154176
154145
154148
154165
154244
154152
154174
154180
154164
154118
154183
154179
154134
154160
154228
154212
154193
154144
154045
154095
154099
154134
154269
154305
154274
154286
154229
154274
154312
154249
154125
154046
153973
154030
154159
154257
154296
154352
154302
154245
154246
154250
154247
154225
154230
154251
154183
154071
154077
154110
154209
154289
154289
154312
154299
154245
154158
154202
154203
154140
154109
154073
154064
154111
154180
154327
154244
154364
154255
154127
154077
154085
154144
154147
154234
154238
154180
154159
154060
154059
154109
154146
154270
154269
154294
154177
154148
154183
154118
154110
154120
154148
154123
154169
154215
154213
154199
154180
154241
154363
154418
154360
154308
154329
154351
154348
154292
154314
154248
154194
154187
154098
154089
153991
153979
153957
153854
153856
153934
153964
153908
153825
153875
153935
153990
154011
153952
153975
154028
154001
154035
154011
154010
154099
154141
154123
154053
154125
154089
154085
154114
154121
154167
154229
154215
154242
154253
154188
154157
154066
154045
154040
154126
154202
154251
154345
154210
154192
154187
154250
154280
154074
154063
154107
154171
154109
154072
154148
154212
154231
154248
154167
154261
154278
154209
154196
154136
154196
154119
154099
154159
154155
154189
154208
154276
154251
154183
154172
154135
154081
154126
154164
154207
154200
154254
154273
154197
154224
154188
154150
154140
154205
154216
154219
154317
154340
154238
154314
154366
154340
154185
154117
154162
154215
154211
154213
154217
154202
154328
154320
154302
154270
154255
154220
154248
154173
154119
154148
154170
154170
154197
154204
154229
154300
154289
154162
154044
154088
153995
153981
154068
154131
154197
154177
154121
154141
154151
153993
153982
153984
153962
153927
153945
153912
154031
154075
154057
154008
153897
153849
153904
153961
153989
153939
153984
153932
153870
153908
153953
154012
154017
153981
153982
154003
154040
154063
154037
153990
153912
153898
153982
153914
153965
154003
154076
154081
154030
153978
153977
153991
153945
153919
153943
153983
154024
154035
154044
154073
154040
153934
153943
153925
153977
153995
154074
154069
153995
153983
153938
153907
153933
153945
153995
154084
154157
154152
154100
154052
154018
153955
153917
153938
153939
154009
154099
154049
154003
153988
153961
153932
153989
153943
154042
153986
154043
154047
153967
153851
153931
154017
153897
153824
153946
154131
154117
154016
153993
154039
153989
153952
153979
153907
153992
153953
153990
153952
153951
154042
154042
153979
153969
153943
153948
153987
154031
153999
153995
154032
153960
153980
153974
154006
153999
153891
153897
153905
153859
153777
154031
154007
153985
153923
154053
154118
154052
154065
154018
154040
153975
153956
153944
153879
153934
154007
153990
154035
154001
153995
154046
153968
153994
153974
153875
153892
153950
153997
153981
153951
153978
153933
153915
153936
154013
153997
154009
154031
153997
153986
154019
154055
154013
153924
153882
153946
154061
153956
153862
153943
154013
154065
154038
153978
153971
153993
154055
154111
153906
153937
154035
154027
154027
153972
153964
153938
154051
154118
154090
154040
154015
154013
153988
153987
154026
154054
154107
154100
154036
154060
154051
153992
153907
154002
154024
154062
154057
154087
154047
154042
154010
153997
153945
153907
153944
153982
154069
154122
154083
154137
154115
154080
154042
153974
153986
154067
154148
154191
154130
154144
154133
154108
154024
153974
153972
154020
154051
154042
154031
153993
153982
153958
153998
153986
153992
153925
153939
153943
153878
153977
153996
153955
153994
153896
153952
153977
154088
154001
153912
153913
153973
154012
154039
153994
154036
154073
153962
153965
153964
153957
153999
153977
153941
153948
154052
154028
154056
154109
154094
154117
154104
154018
153980
154008
154165
154163
154222
154221
154104
154057
154013
153901
153860
153815
153867
153808
153838
153836
153754
153747
153713
153555
153613
153661
153742
153715
153775
153803
153783
153862
153873
153838
153847
153815
153869
153887
153905
153912
153861
153907
153912
153877
153957
153954
153919
153936
153882
153867
153875
153888
153915
153909
153988
153955
153862
153888
153956
154014
153976
153910
153945
153926
153927
153859
153934
154034
154001
153980
153954
153988
154024
154006
153946
153862
153929
153979
154048
154035
153988
154019
154027
154080
154065
153934
153914
153892
153917
153930
153968
153999
154063
154155
153987
153980
154115
154066
153991
154018
154010
154017
154044
154029
153992
153930
153929
153946
154026
154080
154001
153939
153943
154031
154006
153971
154022
154024
153965
153902
153902
153949
154002
153996
153985
153954
153912
153849
153855
153866
153838
154128
154207
153939
153844
153801
153834
153857
153898
153933
153821
153788
153840
153808
153748
153729
153765
153792
153858
153888
153888
153907
153848
153693
153665
153630
153593
153675
153736
153824
153847
153882
153870
153774
153711
153740
153777
153772
153768
153787
153715
153760
153803
153856
153804
153823
153825
153774
153798
153845
153850
153934
153911
153755
153696
153767
153857
153828
153781
153753
153816
153828
153831
153833
153820
153797
153845
153836
153821
153862
153815
153834
153835
153822
153811
153729
153770
153812
153833
153854
153929
153931
153948
153858
153859
153881
153793
153728
153800
153828
153803
153821
153820
153854
153805
153718
153741
153752
153887
153860
153841
153860
153817
153884
153832
153713
153748
153746
153806
153862
153812
153861
153848
153834
153899
153869
153863
153737
153791
153808
153727
153641
153744
153741
153787
153687
153725
153825
153890
153918
153848
153894
153895
153786
153748
153661
153763
153773
153803
153791
153718
153878
153838
153834
153891
153846
153802
153759
153730
153753
153746
153831
153881
153857
153798
153767
153833
153721
153794
153815
153766
153822
153831
153853
153754
153677
153683
153717
153837
153883
153920
153928
153911
153982
153887
153750
153723
153776
153763
153814
153799
153849
153911
153907
153780
153690
153686
153699
153806
153938
153822
153789
153779
153747
153704
153686
153681
153709
153791
153845
153854
153840
153859
153793
153670
153630
153664
153703
153800
153845
153785
153861
154007
153944
153834
153766
153767
153751
153782
153770
153744
153709
153671
153683
153764
153880
153977
153964
153910
153891
153915
153879
153842
153783
153749
153758
153716
153747
153690
153729
153806
153810
153816
153866
153754
153681
153624
153666
153787
153861
153809
153833
153766
153774
153745
153648
153668
153729
153744
153680
153769
153813
153840
153701
153702
153735
153773
153750
153662
153727
153730
153722
153708
153627
153581
153585
153587
153776
153876
153864
153816
153850
153907
153898
153820
153758
153803
153878
153849
153826
153808
153886
153886
153906
153836
153763
153747
153705
153648
153636
153520
153473
153363
153321
153375
153374
153432
153476
153521
153493
153467
153495
153598
153524
153556
153581
153625
153603
153624
153677
153694
153671
153667
153647
153650
153634
153772
153731
153660
153635
153662
153744
153781
153797
153794
153714
153695
153745
153724
153667
153708
153713
153701
153694
153733
153634
153610
153698
153778
153845
153860
153862
153739
153690
153710
153632
153621
153612
153587
153650
153666
153781
153887
153841
153783
153584
153627
153690
153684
153740
153731
153779
153804
153779
153748
153644
153634
153688
153734
153817
153821
153850
153823
153757
153664
153643
153705
153767
153793
153863
153778
153757
153717
153741
153755
153828
153898
153861
153884
153769
153690
153715
153806
153779
153764
153831
153825
153802
153742
153767
153803
153821
153746
153764
153724
153660
153657
153660
153686
153746
153763
153781
153723
153703
153726
153649
153659
153642
153593
153647
153758
153756
153714
153590
153598
153566
153548
153570
153605
153619
153676
153717
153507
153565
153588
153509
153518
153521
153508
153513
153602
153581
153664
153683
153572
153385
153459
153462
153460
153579
153605
153511
153454
153505
153347
153352
153434
153503
153518
153563
153561
153549
153583
153575
153526
153452
153424
153397
153461
153520
153581
153594
153603
153578
153568
153499
153476
153486
153484
153545
153567
153572
153552
153517
153468
153465
153585
153513
153427
153566
153583
153578
153673
153673
153578
153519
153560
153597
153579
153572
153534
153610
153655
153582
153551
153490
153553
153553
153574
153607
153673
153577
153603
153644
153627
153545
153553
153586
153536
153558
153471
153607
153696
153610
153557
153558
153603
153574
153558
153583
153600
153651
153651
153613
153561
153465
153496
153479
153483
153503
153562
153660
153657
153681
153661
153617
153632
153628
153556
153520
153531
153661
153635
153623
153658
153529
153514
153598
153614
153656
153592
153621
153596
153553
153531
153443
153477
153527
153675
153708
153663
153713
153680
153660
153641
153511
153489
153515
153511
153637
153642
153705
153677
153674
153660
153610
153596
153544
153608
153645
153603
153641
153646
153619
153588
153523
153521
153635
153710
153639
153598
153602
153723
153700
153654
153617
153632
153647
153647
153694
153746
153700
153632
153626
153653
153611
153625
153632
153591
153688
153722
153699
153732
153689
153688
153636
153587
153630
153634
153696
153659
153737
153751
153695
153620
153572
153638
153699
153675
153672
153696
153723
153691
153591
153593
153491
153513
153536
153521
153593
153722
153688
153647
153671
153638
153507
153518
153581
153603
153594
153573
153631
153581
153540
153536
153556
153605
153637
153622
153507
153439
153582
153634
153623
153640
153535
153523
153555
153510
153615
153661
153652
153697
153721
153737
153654
153710
153704
153688
153817
153800
153785
153747
153762
153750
153680
153758
153670
153532
153459
153393
153365
153296
153257
153274
153323
153311
153273
153248
153303
153379
153400
153392
153435
153433
153427
153539
153525
153543
153556
153522
153629
153666
153570
153527
153478
153454
153474
153518
153597
153499
153626
153625
153585
153598
153565
153553
153517
153502
153484
153535
153577
153587
153735
153718
153591
153592
153611
153618
153619
153574
153664
153632
153602
153559
153520
153504
153573
153588
153556
153616
153740
153776
153737
153619
153524
153528
153576
153546
153548
153527
153530
153544
153634
153638
153664
153642
153632
153646
153730
153696
153633
153662
153659
153591
153517
153546
153579
153589
153655
153670
153704
153722
153715
153667
153603
153635
153614
153553
153612
153714
153766
153745
153726
153711
153583
153577
153561
153630
153638
153625
153616
153647
153657
153642
153596
153643
153611
153578
153584
153630
153659
153661
153669
153627
153580
153519
153518
153549
153533
153446
153539
153592
153622
153524
153423
153478
153561
153608
153628
153584
153465
153499
153503
153512
153563
153517
153597
153570
153545
153513
153562
153597
153562
153508
153408
153403
153390
153413
153479
153484
153518
153370
153401
153347
153446
153452
153457
153462
153455
153392
153426
153513
153519
153514
153454
153535
153542
153511
153484
153372
153395
153399
153432
153538
153509
153470
153436
153389
153388
153473
153551
153523
153399
153381
153380
153423
153390
153445
153418
153371
153418
153429
153393
153385
153379
153320
153405
153455
153449
153403
153430
153482
153462
153447
153385
153343
153304
153309
153411
153375
153450
153526
153479
153432
153355
153398
153300
153281
153288
153251
153323
153343
153304
153410
153399
153358
153350
153327
153349
153338
153326
153394
153346
153292
153265
153244
153242
153306
153342
153305
153349
153387
153308
153297
153290
153389
153278
153305
153266
153252
153316
153244
153333
153399
153303
153211
153186
153169
153222
153212
153306
153295
153327
153301
153244
153298
153291
153251
153196
153178
153209
153224
153221
153252
153161
153193
153219
153198
153188
153100
153150
153293
153342
153295
153235
153209
153095
153080
153028
153057
153184
153274
153352
153268
153238
153173
153177
153177
153179
153137
153195
153190
153217
153194
153154
153117
153101
153123
153105
153021
153170
153186
153188
153169
153105
153176
153184
153107
153144
153078
153087
153146
153164
153229
153060
153031
153056
153148
153188
153200
153180
153220
153171
153149
153140
153156
153063
153020
152950
152988
153113
153137
153174
153184
153120
153089
152944
152935
152961
153003
153090
153072
153143
153160
153076
153068
153015
152927
152892
152863
152934
152932
152961
152988
152973
153048
152988
152930
152928
152904
152949
152915
152874
152911
152874
152901
152985
153029
153007
152857
152993
152980
152962
152977
152911
152976
152972
152940
152936
152905
153057
153220
153226
153218
153137
153076
152979
152988
152945
152827
152802
152803
152747
152738
152688
152594
152522
152567
152549
152495
152682
152675
152584
152640
152629
152632
152621
152625
152611
152633
152741
152792
152850
152822
152781
152791
152782
152779
152801
152761
152729
152783
152824
152804
152702
152676
152657
152698
152774
152794
152791
152806
152786
152828
152828
152706
152711
152661
152671
152745
152792
152772
152746
152769
152746
152781
152768
152808
152760
152629
152653
152737
152814
152838
152785
152757
152726
152703
152749
152746
152740
152749
152731
152724
152673
152574
152675
152673
152746
152754
152737
152738
152731
152742
152729
152669
152602
152595
152602
152699
152719
152766
152856
152764
152760
152701
152628
152598
152613
152636
152774
152793
152858
152873
152670
152621
152670
152710
152777
152710
152709
152712
152687
152688
152654
152671
152663
152568
152543
152530
152567
152652
152705
152657
152697
152656
152608
152527
152539
152649
152727
152681
152707
152488
152402
152445
152549
152555
152540
152483
152575
152648
152589
152536
152454
152462
152456
152515
152527
152501
152540
152518
152500
152526
152561
152470
152407
152365
152436
152452
152440
152432
152468
152510
152510
152430
152344
152414
152493
152467
152477
152426
152415
152476
152435
152440
152436
152404
152365
152291
152362
152415
152408
152442
152325
152341
152377
152323
152413
152477
152519
152517
152458
152423
152355
152335
152377
152378
152411
152324
152382
152415
152413
152390
152370
152372
152370
152357
152328
152312
152402
152426
152429
152423
152385
152379
152327
152308
152338
152272
152412
152469
152467
152381
152346
152400
152317
152294
152251
152217
152320
152336
152405
152330
152291
152375
152330
152315
152290
152278
152299
152390
152412
152379
152367
152292
152302
152370
152274
152192
152260
152280
152298
152320
152304
152372
152315
152254
152322
152303
152224
152250
152247
152187
152249
152260
152284
152259
152245
152241
152263
152300
152370
152356
152268
152243
152215
152215
152251
152256
152254
152190
152196
152265
152267
152172
152250
152308
152294
152234
152299
152314
152268
152261
152229
152328
152319
152273
152234
152169
152187
152231
152231
152250
152233
152294
152279
152230
152155
152076
152199
152295
152291
152261
152232
152265
152240
152226
152197
152167
152218
152291
152265
152278
152271
152297
152215
152220
152298
152242
152278
152291
152261
152222
152191
152209
152239
152289
152248
152155
152165
152200
152190
152209
152286
152241
152195
152138
152139
152131
152154
152237
152259
152324
152236
152168
152166
152141
152058
152081
152169
152156
152188
152223
152239
152208
152095
152089
152056
152072
152160
152206
152165
152115
152111
152121
152076
152094
152152
152085
152164
152325
152311
152259
152157
152176
152215
152262
152276
152284
152271
152340
152443
152384
152298
152309
152244
152197
152042
151969
151971
151958
151914
151819
151741
151759
151778
151776
151804
151792
151906
151998
152048
152029
151928
151862
151851
151958
152080
152173
152146
152087
152094
152094
152117
152158
152114
152078
152096
152032
152068
152144
152182
152164
152069
152070
152076
152100
152092
152020
152146
152223
152142
152214
152165
152036
152040
152056
152127
152085
152067
152091
152143
152151
152212
152158
152146
152097
152118
152017
152108
152247
152241
152151
152092
152074
152050
152067
152150
152110
152119
152177
152221
152220
152184
152248
152179
152098
152126
152131
152218
152187
152074
152076
152107
152174
152217
152272
152256
152167
152185
152229
152164
152148
152147
152157
152160
152206
152191
152113
152160
152138
152140
152162
152267
152254
152204
152144
152168
152166
152196
152250
152220
152232
152146
152109
152091
152114
152137
152214
152327
152316
152234
152249
152187
152081
152051
151986
152031
152129
152217
152271
152238
152131
152138
152177
152096
152085
152034
151939
151995
152123
152101
152099
152133
152102
152078
152081
152103
152035
152001
152013
152054
152027
152070
152040
152059
152043
152091
152043
152059
152088
152089
152060
152031
152139
152049
151957
151968
152044
152036
152006
152036
152120
152112
152149
152101
152085
152007
151996
151996
151970
152066
152109
152138
152113
152035
152048
151979
151892
152049
152093
152106
152116
152118
152078
152100
152121
152054
151922
151898
151902
151975
152071
152035
152049
152101
152046
152058
152036
152056
152004
151991
151957
151923
151954
151954
152033
152139
152165
152011
152045
152054
152037
151998
152083
151998
151875
151868
151935
152073
152147
152163
152087
152060
152034
152066
151945
151945
151995
152036
152070
152111
152091
151973
151990
151948
151941
151969
151920
151987
152037
152101
152099
152047
152035
152000
151977
151970
151936
151960
152001
151966
152010
151963
152019
152011
152011
151935
151944
152027
152159
152123
152004
152059
152049
151986
152008
151963
151856
151850
151956
152013
152079
152016
152071
152064
152003
152007
151932
151891
151966
152055
152018
151993
151989
151968
152029
152081
151997
151978
151978
151994
152014
152056
151976
151933
151969
151994
151940
151988
152000
152018
152005
151990
152045
152103
152061
152051
151983
152004
152053
152049
152003
151932
151988
152039
152000
152040
151967
152009
152026
152086
152122
152079
152090
152035
152021
152021
151924
151971
152043
152059
152029
151933
151971
151999
152000
151927
151913
151969
151994
152052
152010
151974
151959
151883
151853
151895
151950
151921
151962
152016
151993
151942
151936
151889
151796
151748
151895
152027
152017
152021
151982
151929
151981
151987
151931
151931
151914
151955
152043
152035
152035
151939
152052
152018
151974
151995
151953
151978
152099
152160
152214
152233
152157
152104
152050
152000
151950
151878
151909
152076
152019
151909
151924
151676
151624
151592
151531
151602
151673
151682
151710
151706
151728
151750
151865
151856
151800
151831
151861
151917
151926
151916
151966
151930
151907
151966
151924
151971
151950
151911
151875
151832
151881
151950
151946
152043
152029
152048
151936
151908
151992
151955
151965
151914
151902
151922
151896
151890
151984
151993
152016
151980
151987
152009
151986
151924
151868
151923
151908
151925
152024
152014
151986
151961
151943
151932
151837
151915
152024
152046
152041
152016
152017
152002
152014
151986
151944
151975
152060
152080
152087
152057
152027
151924
151884
151952
152038
152139
152183
152096
152110
152029
152064
152022
151978
151958
152033
152065
152011
152048
152096
151986
152127
152139
152062
151994
151982
151966
151921
152027
152143
152061
152072
152078
152078
152011
151955
152055
152123
152155
152105
152002
152040
152017
152046
152038
152106
152089
151981
151909
151978
151990
152027
152004
151949
151944
151867
151874
151923
151967
151995
151946
151892
151920
151948
151895
151843
151812
151815
151845
152003
152011
151966
152018
152003
151924
151837
151805
151844
151987
151963
151849
151963
152033
152039
151895
151784
151839
151836
151913
151953
151929
151906
151869
151871
151818
151872
151864
151939
151991
152021
152008
151978
151936
151795
151734
151769
151970
152078
151963
151965
151893
151913
151901
151895
151828
151846
151940
151958
151920
151921
151843
151841
151909
151885
151876
151868
151972
151993
151990
151964
151900
151891
151880
151870
151901
151869
151887
151872
151895
151873
151834
151833
151830
151826
151856
151831
151870
151843
151838
151850
151896
151890
151771
151832
151904
151887
151912
151919
151908
151945
151838
151851
151850
151834
151853
151802
151833
151881
151911
151921
151862
151830
151843
151766
151817
151802
151823
151838
151995
152061
152014
151892
151798
151789
151734
151694
151813
151830
151874
151970
151970
151954
151869
151850
151816
151771
151823
151840
151890
151878
151755
151756
151756
151856
151862
151955
151923
151892
151954
151897
151821
151816
151822
151794
151839
151718
151781
151881
151895
151900
151855
151859
151791
151735
151818
151790
151897
151952
151881
151806
151797
151850
151832
151741
151685
151682
151737
151913
151972
151991
151937
151892
151880
151875
151758
151708
151749
151720
151776
151861
151849
151907
151889
151841
151808
151771
151802
151765
151735
151725
151760
151836
151945
151950
151882
151883
151802
151757
151838
151755
151739
151879
151970
151818
151754
151778
151758
151770
151726
151760
151816
151815
151789
151782
151760
151702
151728
151688
151688
151749
151749
151813
151857
151720
151777
151756
151714
151673
151781
151771
151769
151794
151745
151679
151611
151644
151755
151803
151765
151784
151720
151770
151755
151703
151676
151698
151744
151747
151770
151830
151904
151886
151836
151816
151879
151927
152050
151913
151900
151892
151842
151837
151775
151650
151573
151428
151405
151400
151437
151463
151441
151380
151412
151413
151524
151449
151586
151580
151558
151615
151608
151622
151604
151507
151507
151617
151664
151609
151664
151708
151676
151689
151664
151560
151713
151646
151654
151667
151710
151740
151723
151702
151728
151689
151665
151654
151578
151581
151642
151715
151677
151704
151732
151664
151561
151574
151673
151665
151689
151666
151635
151688
151709
151691
151680
151691
151731
151658
151577
151729
151710
151742
151722
151689
151653
151595
151609
151628
151621
151613
151666
151666
151666
151699
151700
151610
151619
151595
151632
151707
151648
151691
151695
151643
151669
151794
151652
151600
151698
151668
151606
151602
151632
151670
151678
151717
151637
151613
151660
151693
151669
151691
151650
151612
151626
151672
151689
151658
151554
151540
151637
151677
151669
151644
151570
151558
151563
151559
151625
151592
151591
151592
151572
151631
151557
151489
151570
151533
151489
151542
151580
151577
151532
151480
151455
151413
151351
151327
151406
151436
151412
151520
151590
151555
151452
151286
151272
151428
151557
151557
151479
151537
151506
151427
151400
151403
151473
151485
151373
151416
151405
151421
151443
151376
151366
151374
151354
151373
151434
151390
151422
151398
151414
151398
151404
151345
151278
151286
151346
151371
151340
151331
151403
151373
151308
151281
151295
151323
151413
151513
151395
151365
151353
151291
151310
151301
151318
151397
151430
151471
151424
151341
151289
151283
151398
151302
151302
151294
151229
151343
151377
151411
151358
151320
151286
151257
151277
151233
151211
151193
151214
151287
151278
151364
151309
151335
151378
151318
151278
151257
151246
151268
151283
151279
151246
151220
151193
151230
151238
151200
151161
151194
151270
151249
151221
151159
151254
151281
151280
151247
151217
151168
151153
151165
151180
151115
151107
151104
151155
151123
151168
151360
151299
151248
151207
151132
151095
151152
151194
151192
151125
151141
151207
151191
151051
151038
151100
151091
151120
151117
151129
151168
151257
151154
151080
151089
151130
151158
151158
151132
151135
151159
151170
151192
151080
151054
151100
151085
151037
151031
151036
151077
151129
151126
151175
151013
151001
151083
151157
151062
151090
151126
151086
151089
151009
150978
151121
151127
151139
151157
151120
151077
151063
151100
151022
150968
151022
151077
151090
151154
151163
151252
151212
151110
151052
151088
151181
151038
151045
151018
151051
151078
151126
151049
151084
151106
151081
151049
151003
151012
150986
151015
151009
151003
150963
150945
151023
150964
150869
150974
151013
151046
151044
150995
150956
150955
150998
150922
150988
150969
150900
150975
151093
151025
151028
150877
150813
150808
150903
151026
150981
150993
151058
151039
150989
150861
150853
150841
150854
150878
150968
150988
151044
151060
151043
151068
151056
151031
151132
151085
151077
151179
151231
151085
151058
151011
150948
150957
150937
150904
150870
150850
150775
150718
150687
150575
150584
150558
150559
150572
150639
150643
150579
150631
150714
150806
150852
150894
150912
150923
150897
150936
150848
150856
150807
150777
150808
150811
150770
150852
150844
150915
150941
150930
150936
150935
150919
150822
150759
150778
150868
151052
150982
150974
150951
150816
150802
150777
150940
151110
150945
150884
150936
150949
150976
150837
150887
150893
150904
150929
150857
150956
150964
150897
150850
150760
150853
150911
150904
150876
150945
150991
151009
150937
150874
150859
150886
150886
150874
150925
150972
151004
151011
151055
150938
150899
150905
150851
150772
150858
150969
150960
151019
150964
150934
150894
150843
150844
150897
150968
150978
150919
150894
150924
150917
150920
150887
150872
150926
150909
150913
150951
150945
150963
150882
150750
150884
150923
150939
150925
150948
150867
150930
151004
150945
150847
150817
150791
150820
150800
150790
150892
150918
150911
150931
150804
150759
150799
150816
150810
150775
150877
150949
150962
150945
150827
150774
150783
150781
150865
150825
150892
150825
150778
150757
150688
150672
150752
150825
150844
150866
150887
150912
150865
150817
150746
150733
150794
150681
150771
150778
150836
150889
150935
150932
150885
150822
150795
150782
150759
150755
150835
150883
150838
150917
150803
150812
150816
150685
150742
150769
150835
150830
150831
150848
150763
150796
150856
150897
150894
150785
150804
150753
150753
150736
150771
150822
150823
150862
150828
150697
150727
150800
150746
150803
150749
150787
150813
150833
150879
150856
150840
150806
150848
150826
150752
150849
150873
150862
150874
150706
150728
150758
150785
150889
150878
150872
150858
150784
150795
150745
150824
150828
150782
150829
150748
150833
150930
150931
150964
150864
150773
150762
150777
150800
150725
150749
150740
150696
150745
150812
150808
150934
150941
150922
150780
150735
150704
150743
150812
150791
150828
150845
150813
150819
150771
150738
150757
150836
150819
150837
150903
150833
150808
150794
150694
150812
150827
150855
150912
150845
150860
150864
150915
150885
150828
150784
150843
150849
150816
150830
150826
150872
150914
150887
150773
150754
150746
150772
150820
150799
150803
150834
150921
150984
150879
150915
150872
150770
150763
150801
150857
150893
150959
150940
150865
150867
150848
150786
150753
150788
150973
151001
150986
150888
150776
150823
150870
150791
150879
151036
151064
150891
150924
150924
150812
150867
150846
150831
150827
150816
150967
150985
150906
150866
150818
150820
150840
150857
150774
150723
150806
150881
150909
150842
150778
150754
150763
150738
150750
150821
150930
150886
150938
150913
150891
150756
150789
150853
150860
150822
150946
150927
150927
150898
150781
150722
150703
150816
150908
150957
151006
151054
151002
151000
151011
150982
150910
150874
150893
150914
151072
151242
151173
151082
150982
150930
150886
150821
150736
150653
150660
150692
150609
150615
150590
150600
150601
150754
150657
150659
150656
150717
150676
150685
150639
150755
150817
150842
150780
150797
150794
150807
150870
150985
150898
150889
150909
150895
150873
150872
150919
150881
150852
150934
150880
150864
150938
150864
150897
150904
150948
150992
150990
150992
150901
150857
150776
150902
150891
150849
150969
150950
150986
151029
150956
150884
150853
150861
150971
150935
151027
151063
151080
151132
150917
150932
150907
150889
150884
150969
151010
151026
151017
151004
150999
151024
151040
150978
150996
150990
151001
150993
150995
151010
150951
150972
150973
150952
150969
151013
151087
151037
151159
151149
151060
151054
151052
151029
151034
151077
151185
151096
151075
151022
150962
151050
151073
151039
151080
151073
151168
151172
151183
151171
151104
150985
151033
151007
150920
150939
150986
151024
151031
151120
151000
150977
151029
151018
151048
151003
151024
151053
151025
151038
150971
150940
150924
150998
151025
150955
150960
150987
151006
151070
150959
150972
150929
150915
150933
150939
151023
151046
150999
151022
151002
150975
150919
150883
150878
150908
151058
151171
151126
151063
150922
150939
150926
150932
150925
150853
150936
150974
150934
150970
150909
150941
151002
151132
151084
151004
150975
151017
150998
150990
150974
150982
150945
150936
150953
150985
151001
150993
151015
151081
151063
150981
150992
151029
151016
150982
151037
151003
150908
150900
150900
150945
150961
151038
151049
150941
151035
151048
151016
151065
151062
151013
150951
150951
150961
150865
150859
150836
150966
151121
151138
151065
151105
151101
150987
150965
150981
151014
151069
150987
150930
150912
150911
150952
150969
150874
150932
150965
150986
151019
150999
150974
150983
150948
150970
150970
150983
150967
150973
150935
150955
150962
150836
150831
150906
150916
151009
151104
151094
151059
150980
150945
150912
150913
150919
150961
151009
150937
150916
150927
150914
150932
150913
150907
150853
150808
150956
151045
150999
150933
150834
150873
150828
150870
150878
150892
150922
150934
150933
150951
150845
150870
150834
150756
150887
150956
150997
151016
150938
150884
150860
150850
150849
150863
150915
150804
150875
150862
150837
150879
150899
150915
150871
150783
150706
150745
150851
150916
150947
150994
150822
150893
150945
150825
150787
150807
150879
150883
150877
150890
150892
150870
150842
150853
150817
150795
150846
150811
150831
150910
150784
150784
150868
150906
150831
150812
150842
150911
150928
150860
150769
150787
150762
150744
150750
150715
150818
150820
150839
150895
150840
150707
150768
150763
150750
150723
150763
150737
150685
150673
150663
150730
150784
150755
150780
150649
150664
150727
150697
150648
150645
150616
150664
150734
150728
150645
150587
150683
150632
150709
150679
150731
150731
150696
150668
150654
150686
150746
150694
150779
150851
150838
150831
150811
150820
150788
150816
150814
150761
150765
150689
150653
150604
150548
150424
150278
150322
150370
150386
150453
150321
150283
150330
150302
150325
150260
150333
150475
150436
150449
150450
150478
150463
150426
150441
150486
150606
150544
150612
150572
150455
150427
150410
150397
150457
150433
150475
150533
150523
150538
150535
150545
150496
150470
150430
150395
150499
150576
150540
150558
150546
150536
150466
150433
150394
150406
150478
150516
150477
150480
150465
150519
150412
150411
150393
150412
150468
150559
150521
150514
150464
150440
150457
150432
150398
150330
150421
150391
150431
150456
150356
150411
150411
150461
150538
150428
150436
150436
150482
150437
150453
150392
150292
150235
150323
150323
150409
150423
150432
150406
150410
150441
150417
150420
150374
150319
150345
150381
150427
150374
150262
150235
150280
150353
150408
150415
150430
150358
150334
150319
150318
150351
150316
150254
150292
150267
150285
150293
150329
150306
150295
150288
150281
150286
150254
150204
150272
150303
150331
150258
150203
150193
150092
149958
150065
150104
150255
150335
150322
150251
150177
150028
149953
149960
150118
150202
150323
150292
150244
150204
150146
150139
150075
150093
150078
150025
150091
150162
150157
150088
150033
150096
150102
150100
150112
150088
150137
150250
150129
150022
150048
150083
149938
149974
150044
150053
150060
150083
150130
150072
150031
150062
150028
149997
150059
150072
150087
150134
150146
150103
149960
149965
149960
150009
150007
150020
150017
149992
150003
150031
149942
150027
150077
150037
149989
149954
150029
149985
150025
150056
150033
150011
149984
150070
149940
149934
149991
149958
149962
149985
150008
150010
149968
149993
149954
149910
149882
149914
149956
149994
149974
150018
150025
149967
149858
149850
149960
150030
150000
149970
149943
149997
149914
149909
149890
149844
149895
149880
149888
149956
149930
149924
149871
149870
149855
149755
149845
149895
149943
149991
149866
149947
149885
149821
149769
149738
149780
149844
149893
149964
149942
149965
149918
149844
149828
149857
149853
149886
149916
149928
149886
149853
149813
149805
149773
149684
149815
149816
149764
149810
149853
149833
149897
149834
149854
149780
149787
149880
149946
149842
149767
149786
149780
149773
149848
149912
149816
149821
149831
149830
149790
149778
149802
149806
149782
149760
149819
149789
149820
149838
149754
149745
149792
149777
149769
149773
149829
149838
149785
149798
149735
149720
149916
149877
149871
149825
149768
149823
149894
149838
149728
149853
149827
149728
149733
149770
149878
149917
149890
149918
149849
149846
149753
149747
149752
149756
149867
149915
149855
149755
149719
149710
149751
149891
149904
149805
149756
149715
149698
149728
149779
149876
149830
149760
149706
149711
149770
149778
149788
149761
149749
149669
149640
149695
149679
149691
149711
149769
149748
149728
149687
149707
149714
149675
149655
149696
149781
149872
149798
149822
149772
149779
149765
149717
149762
149791
149895
149987
150033
150085
149971
149898
149802
149815
149791
149754
149840
149856
149714
149650
149535
149455
149445
149428
149371
149282
149389
149524
149569
149542
149522
149558
149559
149536
149600
149555
149550
149644
149781
149815
149761
149751
149713
149623
149638
149644
149712
149717
149786
149794
149721
149779
149694
149699
149680
149640
149712
149777
149806
149817
149791
149758
149763
149754
149751
149716
149767
149802
149819
149759
149743
149717
149725
149715
149743
149775
149777
149792
149783
149824
149786
149891
149874
149782
149693
149700
149739
149815
149881
149879
149778
149813
149829
149712
149760
149863
149879
149861
149818
149850
149793
149862
149806
149752
149784
149810
149826
149808
149883
149884
149925
149955
149881
149844
149785
149696
149679
149738
149752
149866
149945
150004
150002
149928
149803
149792
149814
149924
149986
149990
149946
150046
149922
149951
149865
149801
149839
149849
149896
149944
149928
149905
149878
149788
149865
149759
149715
149737
149812
149864
149869
149847
149823
149833
149859
149774
149800
149820
149761
149846
149823
149792
149771
149800
149853
149807
149805
149836
149806
149876
149807
149848
149837
149783
149693
149683
149750
149913
149993
149949
149855
149826
149840
149791
149739
149719
149728
149795
149903
149840
149835
149856
149844
149802
149863
149814
149832
149848
149846
149886
149844
149847
149828
149804
149823
149773
149864
149952
149944
149908
149887
149897
149846
149784
149833
149836
149828
149861
149882
149917
149823
149849
149828
149771
149735
149794
149878
149951
150003
149913
149901
149948
149846
149813
149873
149902
149841
149879
149926
149881
149787
149877
149970
149931
149980
149912
149908
149926
149914
149859
149839
149893
149880
149954
149964
149925
149894
149917
150012
150022
149948
149894
149894
149895
149906
149892
149854
149850
149856
149902
149991
149997
149945
149975
150057
149857
149881
149961
150022
150003
149893
149873
149866
149792
149904
149995
150011
149990
150032
149967
149922
149971
149958
149914
149984
149958
149952
149943
149979
149936
149920
149960
150009
150020
149942
149921
149938
149933
149980
149993
149966
150018
150053
149982
149983
149951
150004
150034
150049
150090
150043
150011
149927
149950
149953
149986
150046
150086
150107
150151
150096
150108
150041
150005
149986
149922
149976
150027
150168
150186
150097
150159
150033
150073
150078
150053
150044
150109
150198
150117
150072
150124
150021
150018
150029
150005
150066
150119
150151
150146
150103
150112
150092
150028
150128
150103
149998
149972
150036
150120
150164
150162
150119
150044
150050
150063
150166
150233
150155
150008
150003
149992
150016
150032
150078
150016
150086
150066
150027
150132
150137
150127
150133
150171
150083
150032
150021
150048
150102
150192
150210
150218
150250
150228
150246
150146
150243
150267
150284
150357
150315
150315
150289
150256
150205
150202
150239
150227
150151
150023
149999
149970
149906
149827
149782
149737
149776
149821
149960
149986
150046
150046
150038
149962
149940
149996
150048
150105
150139
150208
150222
150203
150192
150209
150092
150126
150157
150211
150271
150283
150222
150278
150291
150294
150209
150158
150106
150181
150215
150249
150262
150273
150250
150215
150205
150190
150295
150303
150319
150311
150287
150405
150436
150296
150315
150281
150276
150316
150310
150336
150361
150315
150283
150260
150295
150284
150361
150409
150385
150426
150365
150325
150342
150358
150319
150249
150347
150452
150437
150418
150341
150389
150366
150377
150338
150321
150387
150462
150485
150486
150477
150527
150567
150499
150401
150398
150407
150424
150431
150453
150418
150519
150647
150572
150404
150424
150499
150475
150504
150516
150478
150478
150450
150456
150433
150385
150482
150550
150492
150468
150508
150499
150516
150509
150478
150434
150419
150406
150492
150478
150480
150535
150480
150438
150414
150469
150469
150469
150481
150548
150483
150364
150381
150432
150456
150472
150482
150445
150497
150606
150524
150518
150414
150342
150354
150411
150467
150457
150529
150566
150524
150522
150475
150399
150453
150439
150408
150470
150504
150550
150522
150500
150507
150458
150453
150421
150563
150613
150581
150534
150480
150450
150490
150573
150526
150471
150484
150475
150542
150574
150518
150547
150609
150480
150433
150501
150581
150563
150630
150644
150601
150601
150580
150578
150606
150547
150520
150505
150485
150496
150494
150632
150654
150701
150720
150573
150589
150577
150639
150677
150607
150657
150677
150638
150566
150522
150575
150594
150674
150663
150617
150614
150584
150604
150551
150578
150570
150468
150546
150623
150646
150720
150763
150707
150612
150607
150633
150666
150700
150669
150611
150707
150758
150724
150675
150611
150588
150574
150621
150720
150717
150672
150585
150583
150646
150662
150773
150729
150640
150667
150638
150758
150804
150692
150687
150607
150617
150650
150625
150710
150725
150767
150786
150775
150686
150707
150709
150710
150754
150759
150680
150655
150647
150638
150717
150732
150753
150766
150709
150725
150766
150820
150802
150755
150741
150718
150652
150622
150649
150675
150741
150789
150835
150799
150784
150767
150821
150846
150862
150808
150767
150796
150836
150865
150732
150648
150791
150865
150827
150878
150840
150890
150848
150857
150855
150783
150810
150840
150909
150921
150876
150884
150894
150849
150784
150736
150817
150881
150902
150858
150836
150860
150805
150797
150770
150731
150755
150769
150842
150843
150805
150861
150902
150853
150784
150672
150702
150754
150859
150953
150923
150845
150881
150925
150821
150712
150750
150740
150782
150856
150826
150883
150919
150943
150982
150854
150858
150890
150923
150920
150887
150909
151010
151044
151089
151065
150988
151039
151087
151044
151061
151096
151164
151073
150992
150821
150722
150676
150575
150562
150518
150554
150600
150642
150710
150662
150618
150732
150765
150810
150764
150841
150836
150789
150751
150765
150717
150774
150901
150943
150941
150887
150883
150959
150997
150959
150960
150964
150890
150901
150887
150929
150901
150905
150898
150916
150986
150951
150909
150941
150915
151009
151067
151046
151014
150923
150909
150917
150922
150921
150923
151009
151115
151102
151048
150910
150904
150952
150973
151087
151106
151092
151023
151035
151025
151005
150984
150987
150992
151124
151157
151108
151074
151055
150992
150948
151001
151089
151075
151015
150998
151164
151166
151077
151051
151020
151109
151178
151155
151173
151115
151113
151135
151067
151027
151086
151108
151163
151126
151052
151069
151179
151191
151156
151131
151054
151076
151051
151049
151218
151212
151166
151139
151181
151154
151134
151117
151097
151097
151116
151184
151232
151175
151130
151103
151096
151044
151061
151147
151170
151103
151127
151196
151194
151118
151056
150986
150973
151055
151139
151138
151141
151110
151042
151037
151017
151076
151157
151145
151138
151154
151190
151064
151102
151113
151011
151027
151032
151130
151168
151124
151125
151140
151121
151139
151060
151072
151087
151072
151099
151117
151143
151174
151184
151143
150997
151038
151093
151059
151099
151103
151123
151116
151139
151171
151131
151080
151080
151149
151156
151084
151048
151026
151055
151108
151100
151219
151226
151114
151112
151128
151180
151213
151170
151088
151055
151138
151165
151129
151154
151150
151155
151147
151163
151116
151039
151142
151158
151161
151136
151173
151232
151252
151217
151125
151046
151075
151151
151152
151173
151171
151255
151265
151285
151302
151165
151081
151064
151139
151199
151188
151186
151179
151234
151282
151219
151189
151178
151210
151186
151148
151239
151284
151299
151250
151204
151170
151105
151117
151125
151165
151237
151224
151244
151262
151171
151217
151117
151087
151161
151156
151271
151269
151264
151223
151157
151190
151256
151298
151204
151121
151179
151262
151260
151205
151141
151218
151241
151219
151224
151224
151308
151355
151216
151162
151194
151215
151212
151165
151195
151213
151247
151203
151246
151252
151215
151200
151217
151188
151216
151206
151238
151242
151268
151214
151217
151287
151290
151245
151278
151249
151320
151295
151259
151223
151198
151250
151296
151245
151312
151315
151335
151380
151371
151287
151192
151253
151243
151184
151221
151240
151362
151428
151395
151299
151188
151250
151227
151218
151388
151272
151319
151356
151455
151424
151322
151327
151302
151281
151257
151180
151168
151172
151273
151312
151305
151317
151312
151211
151229
151198
151261
151339
151304
151256
151245
151192
151180
151316
151325
151228
151281
151312
151319
151308
151235
151269
151288
151265
151271
151234
151264
151224
151232
151308
151163
151150
151178
151230
151384
151378
151389
151426
151404
151387
151383
151555
151532
151440
151364
151450
151514
151475
151335
151294
151230
151282
151352
151375
151199
151071
151034
150985
151006
151048
150989
150978
150910
150961
151043
151065
151191
151245
151238
151222
151149
151153
151187
151194
151276
151314
151257
151254
151264
151181
151214
151216
151281
151219
151261
151273
151358
151346
151297
151332
151265
151206
151220
151262
151293
151251
151324
151302
151304
151306
151343
151330
151375
151328
151278
151323
151432
151471
151446
151451
151322
151253
151234
151235
151351
151406
151470
151407
151347
151410
151440
151409
151273
151306
151360
151396
151477
151447
151435
151404
151371
151348
151295
151213
151236
151318
151450
151565
151606
151541
151440
151373
151405
151470
151476
151425
151405
151412
151401
151347
151331
151512
151517
151511
151565
151496
151514
151540
151483
151478
151470
151445
151480
151424
151380
151339
151416
151420
151378
151477
151460
151515
151486
151509
151485
151425
151469
151429
151389
151380
151307
151346
151432
151415
151409
151392
151461
151508
151505
151454
151375
151332
151340
151328
151338
151361
151443
151440
151448
151400
151359
151367
151335
151309
151296
151345
151325
151458
151496
151510
151417
151417
151389
151335
151300
151269
151246
151353
151428
151454
151398
151354
151352
151374
151401
151339
151383
151400
151431
151376
151342
151380
151420
151388
151427
151432
151397
151425
151417
151396
151336
151372
151402
151478
151527
151362
151402
151427
151423
151404
151332
151364
151404
151422
151424
151421
151436
151515
151548
151472
151367
151307
151336
151439
151530
151464
151487
151458
151444
151472
151397
151409
151475
151448
151363
151389
151450
151503
151495
151467
151347
151470
151538
151504
151400
151384
151462
151466
151467
151538
151445
151417
151400
151444
151375
151386
151482
151535
151536
151488
151424
151437
151456
151421
151417
151374
151352
151456
151546
151638
151508
151443
151443
151473
151482
151428
151494
151555
151532
151568
151540
151421
151402
151451
151516
151481
151520
151443
151456
151485
151527
151559
151489
151410
151425
151412
151480
151529
151526
151554
151542
151457
151407
151483
151519
151450
151507
151550
151560
151528
151457
151464
151398
151304
151389
151490
151599
151498
151527
151542
151414
151413
151422
151430
151480
151434
151529
151593
151542
151520
151478
151451
151469
151432
151464
151493
151537
151561
151517
151499
151507
151613
151555
151493
151475
151508
151513
151474
151430
151437
151474
151503
151578
151537
151431
151445
151529
151537
151521
151467
151498
151530
151475
151543
151532
151462
151538
151465
151487
151507
151388
151373
151412
151485
151543
151555
151556
151505
151443
151413
151436
151437
151349
151447
151447
151380
151430
151442
151444
151529
151519
151516
151442
151438
151482
151451
151492
151467
151403
151425
151496
151499
151447
151469
151435
151418
151515
151519
151537
151566
151511
151529
151552
151638
151568
151554
151548
151542
151568
151624
151622
151636
151611
151642
151644
151570
151568
151614
151565
151461
151302
151202
151194
151100
151117
151118
151206
151287
151315
151322
151182
151169
151291
151344
151377
151343
151349
151357
151408
151546
151484
151462
151491
151528
151463
151447
151557
151585
151635
151501
151461
151453
151447
151438
151385
151396
151475
151542
151548
151564
151521
151514
151496
151542
151539
151531
151565
151534
151598
151541
151501
151498
151613
151497
151535
151554
151504
151534
151510
151636
151618
151587
151543
151542
151514
151462
151551
151581
151574
151560
151438
151441
151582
151632
151595
151627
151614
151603
151617
151661
151681
151664
151628
151654
151659
151585
151561
151614
151682
151663
151596
151660
151621
151577
151640
151624
151644
151604
151588
151584
151582
151615
151637
151618
151618
151596
151685
151697
151700
151680
151640
151638
151608
151666
151594
151549
151675
151647
151610
151700
151588
151604
151623
151543
151554
151574
151631
151715
151711
151718
151617
151557
151537
151535
151563
151505
151495
151545
151594
151650
151596
151567
151477
151490
151513
151477
151569
151550
151592
151562
151515
151549
151525
151427
151458
151421
151547
151687
151744
151589
151479
151514
151506
151501
151458
151446
151570
151698
151690
151547
151505
151517
151516
151554
151530
151519
151562
151613
151637
151591
151628
151621
151579
151556
151528
151470
151559
151552
151564
151592
151559
151596
151615
151710
151700
151575
151643
151657
151691
151649
151529
151501
151503
151505
151528
151555
151674
151654
151640
151702
151722
151626
151464
151546
151633
151650
151703
151657
151649
151612
151540
151582
151587
151587
151584
151542
151563
151731
151751
151730
151705
151731
151699
151651
151617
151543
151620
151674
151666
151645
151571
151526
151592
151662
151705
151615
151672
151682
151698
151636
151587
151616
151569
151550
151542
151506
151583
151666
151684
151801
151756
151656
151680
151718
151710
151662
151652
151666
151651
151709
151597
151644
151640
151633
151591
151596
151686
151703
151728
151693
151634
151671
151639
151573
151568
151559
151574
151707
151723
151849
151735
151666
151615
151574
151622
151627
151673
151640
151696
151733
151758
151806
151595
151596
151567
151507
151668
151778
151694
151698
151721
151645
151528
151497
151583
151649
151728
151736
151724
151716
151785
151781
151702
151619
151590
151521
151592
151624
151601
151695
151702
151690
151702
151845
151823
151670
151682
151707
151737
151663
151634
151662
151551
151605
151685
151649
151745
151718
151749
151807
151733
151680
151707
151660
151674
151632
151613
151656
151635
151632
151591
151693
151613
151611
151637
151596
151722
151747
151695
151709
151723
151702
151653
151570
151561
151528
151582
151682
151619
151721
151676
151646
151611
151499
151514
151543
151578
151527
151547
151607
151575
151640
151638
151705
151648
151551
151593
151621
151621
151646
151626
151636
151583
151588
151621
151573
151697
151778
151761
151781
151829
151773
151688
151686
151693
151703
151782
151810
151845
151860
151722
151691
151672
151577
151454
151341
151327
151295
151337
151379
151330
151345
151350
151370
151412
151411
151494
151542
151560
151610
151462
151444
151489
151605
151680
151619
151626
151655
151697
151641
151566
151622
151659
151658
151619
151658
151715
151802
151746
151706
151665
151658
151645
151672
151680
151693
151690
151670
151674
151744
151712
151710
151708
151714
151699
151733
151638
151656
151703
151691
151664
151657
151672
151709
151718
151701
151702
151718
151708
151744
151801
151868
151796
151700
151714
151691
151791
151818
151822
151717
151684
151755
151763
151790
151805
151751
151727
151731
151772
151808
151767
151763
151735
151745
151809
151744
151720
151731
151696
151805
151866
151883
151842
151778
151731
151757
151811
151868
151813
151808
151856
151799
151753
151867
151821
151774
151840
151868
151803
151844
151839
151830
151761
151681
151794
151788
151794
151799
151732
151777
151769
151809
151758
151691
151634
151657
151717
151711
151710
151702
151803
151782
151753
151733
151676
151716
151775
151750
151684
151725
151747
151756
151707
151664
151652
151570
151663
151717
151733
151783
151752
151752
151741
151752
151795
151581
151690
151792
151775
151721
151695
151658
151712
151713
151671
151775
151808
151703
151666
151738
151736
151713
151701
151672
151615
151623
151638
151673
151753
151817
151748
151836
151800
151709
151628
151611
151709
151810
151778
151640
151582
151662
151689
151669
151700
151659
151707
151786
151771
151780
151776
151764
151624
151638
151677
151673
151718
151704
151747
151760
151683
151737
151812
151750
151714
151590
151643
151705
151780
151844
151820
151711
151708
151671
151744
151718
151658
151678
151675
151666
151692
151820
151878
151821
151802
151745
151663
151718
151671
151700
151689
151704
151721
151753
151746
151734
151733
151753
151786
151779
151705
151690
151636
151623
151713
151621
151733
151756
151743
151777
151747
151771
151713
151660
151672
151634
151658
151766
151789
151728
151754
151760
151770
151741
151772
151747
151814
151691
151670
151676
151573
151626
151641
151684
151718
151672
151689
151789
151710
151752
151734
151747
151734
151766
151733
151729
151712
151675
151683
151717
151680
151722
151691
151643
151695
151624
151599
151732
151819
151764
151694
151730
151730
151724
151703
151668
151657
151705
151779
151837
151678
151641
151608
151637
151621
151613
151690
151698
151800
151789
151781
151741
151685
151678
151631
151564
151647
151626
151674
151675
151778
151808
151780
151704
151660
151613
151631
151709
151824
151822
151680
151710
151734
151754
151731
151677
151695
151762
151731
151732
151707
151743
151751
151693
151739
151796
151792
151760
151782
151730
151685
151742
151756
151671
151574
151586
151744
151733
151796
151823
151733
151749
151675
151627
151645
151576
151615
151701
151686
151699
151681
151689
151793
151716
151691
151628
151674
151654
151723
151694
151671
151760
151784
151721
151658
151720
151740
151675
151690
151640
151670
151734
151710
151703
151780
151767
151841
151901
151904
151838
151846
151914
151920
151852
151808
151689
151722
151760
151777
151750
151652
151565
151476
151413
151379
151401
151499
151398
151432
151462
151404
151534
151574
151498
151459
151466
151476
151557
151649
151709
151686
151678
151619
151587
151572
151627
151748
151718
151712
151758
151719
151739
151709
151703
151691
151725
151829
151792
151783
151810
151609
151666
151666
151686
151723
151674
151740
151797
151776
151734
151692
151736
151756
151722
151776
151744
151739
151698
151717
151812
151855
151875
151840
151769
151749
151708
151744
151750
151776
151801
151834
151796
151801
151719
151737
151753
151784
151782
151806
151851
151834
151813
151794
151834
151790
151794
151830
151758
151774
151742
151781
151896
151943
151874
151842
151859
151879
151864
151782
151806
151851
151925
151879
151817
151795
151740
151793
151866
151922
151860
151808
151909
151889
151913
151852
151757
151692
151768
151810
151748
151701
151765
151727
151801
151767
151804
151838
151847
151879
151879
151846
151801
151718
151679
151704
151690
151711
151747
151769
151790
151720
151737
151761
151689
151742
151790
151672
151702
151714
151767
151728
151685
151692
151676
151694
151690
151779
151753
151763
151742
151768
151728
151712
151721
151734
151683
151715
151725
151792
151752
151725
151808
151763
151761
151823
151737
151626
151737
151768
151754
151761
151746
151819
151782
151705
151665
151752
151792
151845
151833
151776
151772
151755
151716
151753
151676
151689
151815
151843
151805
151734
151712
151763
151744
151781
151766
151811
151754
151767
151816
151755
151726
151745
151684
151678
151655
151708
151740
151865
151866
151818
151826
151814
151839
151739
151618
151625
151685
151800
151840
151806
151864
151865
151777
151714
151686
151778
151748
151767
151918
151837
151874
151780
151711
151706
151749
151833
151747
151780
151760
151782
151776
151732
151769
151786
151728
151680
151726
151803
151786
151741
151797
151767
151734
151694
151606
151621
151770
151840
151887
151833
151787
151761
151752
151692
151669
151794
151832
151833
151792
151757
151753
151701
151780
151748
151733
151751
151673
151726
151770
151774
151773
151816
151776
151687
151651
151711
151765
151831
151888
151820
151846
151851
151793
151775
151688
151679
151620
151677
151720
151750
151813
151804
151715
151722
151726
151683
151698
151740
151709
151696
151726
151763
151808
151796
151739
151773
151756
151772
151755
151728
151714
151720
151693
151635
151667
151790
151825
151859
151791
151770
151771
151768
151737
151710
151678
151676
151712
151703
151678
151642
151675
151724
151797
151789
151739
151698
151702
151778
151790
151822
151822
151737
151665
151640
151576
151702
151824
151904
151883
151821
151843
151847
151838
151748
151690
151744
151749
151860
151856
151743
151704
151770
151771
151760
151739
151770
151801
151774
151751
151782
151797
151793
151704
151672
151641
151712
151749
151752
151694
151612
151707
151684
151682
151717
151733
151711
151709
151733
151772
151717
151730
151689
151657
151595
151619
151686
151719
151746
151736
151691
151658
151703
151695
151627
151544
151666
151722
151812
151814
151780
151779
151740
151854
151756
151747
151805
151840
151879
151816
151768
151794
151955
151992
151891
151810
151747
151644
151553
151500
151483
151417
151465
151473
151445
151368
151319
151376
151417
151499
151523
151527
151538
151571
151561
151514
151561
151610
151647
151748
151619
151671
151671
151689
151685
151712
151701
151722
151675
151671
151673
151662
151682
151730
151670
151600
151676
151734
151812
151820
151760
151743
151662
151676
151747
151723
151715
151788
151777
151747
151722
151747
151761
151815
151809
151717
151757
151676
151662
151705
151719
151801
151829
151857
151852
151747
151719
151731
151765
151773
151786
151848
151806
151848
151805
151702
151699
151731
151789
151756
151798
151866
151780
151860
151845
151727
151744
151735
151711
151784
151761
151750
151800
151811
151823
151794
151744
151692
151718
151776
151807
151885
151855
151846
151791
151747
151745
151819
151863
151812
151743
151804
151798
151745
151669
151604
151655
151597
151699
151874
151842
151763
151771
151743
151713
151667
151716
151705
151722
151708
151689
151636
151669
151664
151651
151645
151566
151638
151618
151627
151562
151639
151775
151795
151706
151588
151572
151560
151543
151578
151568
151608
151631
151548
151574
151608
151512
151581
151687
151611
151596
151664
151654
151641
151677
151596
151613
151618
151626
151677
151654
151476
151542
151588
151771
151681
151584
151599
151593
151583
151614
151697
151692
151636
151507
151507
151569
151586
151605
151622
151632
151606
151685
151715
151722
151624
151505
151516
151520
151608
151613
151668
151708
151783
151641
151535
151619
151578
151564
151500
151505
151638
151652
151676
151698
151641
151606
151658
151588
151538
151620
151681
151595
151604
151612
151552
151584
151619
151646
151699
151625
151631
151649
151600
151586
151578
151675
151655
151621
151612
151631
151694
151705
151618
151501
151503
151639
151673
151658
151633
151606
151629
151636
151727
151705
151604
151561
151626
151607
151652
151602
151644
151696
151657
151595
151556
151658
151705
151668
151634
151606
151651
151688
151599
151520
151467
151528
151634
151599
151657
151692
151782
151706
151689
151631
151548
151552
151525
151487
151588
151689
151705
151631
151575
151602
151585
151571
151576
151599
151666
151729
151658
151645
151608
151566
151537
151549
151597
151689
151624
151565
151677
151721
151755
151651
151554
151540
151538
151560
151586
151639
151716
151739
151733
151727
151680
151694
151707
151666
151625
151666
151690
151655
151714
151685
151635
151578
151618
151637
151678
151646
151679
151689
151726
151677
151535
151548
151648
151726
151704
151656
151667
151781
151761
151664
151685
151645
151629
151650
151676
151698
151744
151724
151714
151711
151594
151587
151623
151588
151686
151760
151726
151664
151666
151687
151612
151573
151605
151639
151637
151613
151629
151577
151599
151686
151648
151627
151633
151753
151719
151649
151709
151685
151674
151730
151713
151628
151653
151681
151650
151657
151763
151823
151798
151836
151822
151841
151769
151716
151712
151729
151783
151734
151642
151592
151427
151386
151383
151368
151297
151299
151360
151413
151456
151418
151400
151381
151394
151386
151400
151467
151585
151559
151608
151667
151573
151619
151672
151655
151613
151667
151658
151599
151577
151684
151568
151610
151646
151629
151626
151759
151769
151766
151723
151687
151624
151613
151673
151714
151723
151716
151743
151719
151729
151747
151690
151711
151742
151767
151760
151765
151790
151775
151780
151722
151631
151654
151705
151740
151757
151820
151881
151881
151770
151778
151745
151739
151783
151753
151718
151679
151688
151658
151879
152004
151846
151866
151826
151808
151782
151774
151794
151794
151824
151818
151782
151782
151776
151748
151734
151672
151726
151789
151870
151881
151932
151921
151855
151875
151867
151672
151706
151769
151806
151776
151743
151790
151801
151824
151836
151834
151894
151953
151833
151764
151803
151817
151756
151789
151860
151849
151848
151855
151793
151748
151642
151630
151684
151698
151680
151734
151797
151822
151840
151740
151602
151645
151711
151680
151653
151638
151740
151786
151769
151732
151688
151669
151726
151776
151697
151666
151780
151817
151739
151716
151634
151636
151706
151751
151675
151753
151759
151702
151767
151784
151743
151751
151717
151700
151677
151703
151819
151822
151755
151739
151739
151737
151753
151735
151679
151768
151855
151932
151781
151706
151708
151743
151750
151719
151710
151682
151663
151677
151702
151735
151699
151670
151707
151722
151793
151742
151708
151770
151768
151770
151755
151737
151763
151828
151861
151737
151710
151774
151793
151738
151667
151647
151677
151644
151710
151716
151800
151805
151752
151746
151734
151731
151751
151747
151652
151596
151587
151662
151707
151825
151760
151779
151779
151736
151730
151618
151664
151774
151814
151773
151628
151613
151633
151657
151675
151746
151788
151770
151755
151781
151668
151638
151622
151566
151574
151583
151671
151718
151707
151737
151682
151730
151746
151710
151707
151681
151734
151699
151662
151659
151604
151679
151713
151683
151687
151645
151719
151734
151663
151654
151588
151637
151599
151541
151685
151594
151615
151657
151686
151748
151733
151597
151560
151592
151575
151565
151570
151584
151568
151631
151687
151676
151620
151591
151553
151533
151579
151619
151751
151771
151657
151595
151585
151646
151623
151567
151538
151541
151528
151607
151609
151718
151659
151584
151542
151521
151582
151575
151544
151538
151535
151573
151636
151627
151550
151569
151611
151559
151629
151662
151608
151572
151490
151503
151569
151580
151597
151677
151624
151556
151516
151479
151504
151521
151513
151528
151460
151483
151508
151495
151433
151387
151385
151404
151469
151472
151575
151533
151525
151488
151418
151396
151395
151389
151351
151328
151351
151394
151372
151404
151456
151392
151399
151426
151421
151310
151377
151428
151376
151263
151223
151350
151456
151455
151431
151363
151371
151413
151499
151514
151520
151499
151422
151389
151405
151418
151569
151622
151502
151464
151360
151301
151294
151215
151160
151033
151090
151159
151176
151090
150944
151027
151144
151099
151095
151064
151046
150979
150998
151096
151122
151251
151250
151229
151259
151194
151232
151188
151166
151183
151217
151246
151216
151184
151160
151124
151201
151278
151317
151279
151199
151125
151139
151203
151179
151199
151339
151270
151180
151219
151163
151121
151159
151262
151163
151117
151206
151308
151303
151205
151163
151162
151139
151074
151103
151115
151203
151227
151171
151194
151225
151211
151206
151137
151111
151086
151215
151227
151180
151160
151059
151076
151110
151161
151234
151199
151147
151219
151115
151115
151091
151146
151139
151100
151118
151113
151126
151109
151119
151132
151150
151127
151082
151073
151046
151089
151272
151203
151139
151161
151181
151106
151115
151068
150988
151073
151117
151063
151035
151035
151028
151020
151095
151077
151050
150942
150961
150978
151019
151112
151026
150917
150912
150926
150856
150922
150955
150960
150982
151005
150983
150964
150964
150902
150902
150900
150936
150975
150988
150921
150820
150788
150867
150919
150926
150789
150903
150976
150960
150935
150821
150730
150692
150686
150761
150745
150827
150878
150939
150934
150853
150827
150769
150779
150786
150780
150816
150810
150785
150746
150747
150719
150720
150823
150799
150756
150801
150768
150745
150700
150696
150762
150850
150854
150755
150621
150753
150774
150742
150669
150710
150767
150820
150700
150606
150579
150630
150679
150750
150742
150692
150710
150719
150771
150690
150549
150646
150689
150681
150670
150689
150758
150688
150678
150639
150617
150666
150666
150673
150654
150580
150594
150561
150557
150617
150615
150717
150726
150687
150701
150649
150632
150645
150595
150595
150588
150610
150632
150638
150638
150558
150616
150644
150587
150546
150518
150536
150533
150614
150625
150610
150645
150564
150560
150566
150524
150582
150587
150592
150544
150424
150516
150559
150548
150547
150527
150488
150584
150630
150620
150498
150436
150487
150491
150425
150395
150512
150561
150571
150541
150561
150521
150462
150489
150502
150446
150472
150534
150524
150441
150449
150430
150357
150452
150472
150506
150597
150574
150553
150544
150511
150494
150448
150416
150396
150370
150406
150438
150451
150520
150518
150488
150466
150409
150427
150459
150490
150450
150446
150399
150386
150367
150370
150291
150345
150487
150599
150582
150557
150577
150433
150461
150459
150420
150387
150304
150384
150449
150488
150506
150486
150461
150430
150425
150458
150424
150461
150481
150423
150334
150352
150399
150456
150464
150480
150435
150486
150599
150535
150490
150399
150429
150375
150368
150453
150409
150367
150401
150415
150429
150426
150465
150412
150337
150260
150265
150380
150422
150430
150387
150293
150324
150289
150232
150286
150294
150318
150461
150517
150550
150434
150430
150398
150333
150323
150319
150327
150419
150298
150262
150295
150443
150481
150442
150455
150366
150433
150475
150516
150473
150440
150422
150478
150552
150571
150450
150433
150478
150543
150570
150505
150424
150238
150125
150089
150058
150040
150001
149989
150009
150083
150171
150094
150126
150066
150100
150203
150305
150403
150447
150281
150295
150325
150309
150293
150253
150273
150235
150295
150397
150357
150341
150325
150184
150231
150342
150451
150489
150391
150390
150362
150329
150276
150272
150300
150347
150337
150314
150388
150481
150406
150503
150449
150322
150346
150296
150319
150362
150418
150408
150349
150363
150381
150338
150260
150269
150330
150383
150428
150435
150401
150370
150355
150390
150412
150323
150353
150358
150411
150440
150453
150482
150345
150402
150397
150327
150368
150537
150523
150470
150410
150450
150477
150502
150420
150267
150348
150430
150441
150411
150431
150515
150470
150363
150355
150347
150451
150526
150547
150559
150527
150519
150417
150357
150325
150327
150435
150428
150417
150511
150535
150458
150481
150474
150498
150436
150471
150452
150404
150382
150334
150378
150376
150329
150359
150440
150416
150372
150355
150426
150447
150411
150384
150374
150321
150279
150342
150398
150496
150519
150324
150275
150299
150298
150311
150328
150296
150386
150426
150487
150406
150392
150443
150394
150258
150270
150371
150463
150533
150444
150388
150425
150436
150467
150362
150318
150329
150361
150412
150374
150342
150387
150371
150425
150563
150372
150374
150414
150447
150416
150373
150346
150333
150308
150235
150265
150409
150461
150501
150446
150380
150380
150485
150484
150388
150351
150445
150510
150467
150361
150391
150363
150375
150409
150386
150370
150391
150424
150412
150434
150512
150555
150478
150404
150373
150394
150394
150333
150355
150426
150384
150393
150482
150526
150553
150446
150436
150471
150417
150413
150427
150462
150537
150444
150314
150312
150344
150415
150493
150484
150412
150405
150419
150451
150463
150392
150396
150460
150513
150530
150455
150482
150507
150465
150464
150441
150419
150372
150418
150492
150471
150475
150437
150488
150467
150468
150458
150475
150564
150544
150456
150469
150543
150482
150462
150390
150400
150406
150442
150442
150385
150451
150461
150510
150461
150448
150524
150510
150498
150459
150425
150511
150475
150470
150485
150359
150423
150528
150554
150563
150539
150591
150550
150507
150454
150375
150464
150477
150532
150560
150432
150446
150467
150499
150577
150585
150559
150492
150504
150515
150565
150580
150506
150542
150529
150477
150490
150497
150504
150556
150594
150594
150574
150646
150635
150543
150481
150549
150604
150631
150586
150547
150578
150547
150530
150500
150495
150547
150554
150543
150469
150499
150547
150561
150590
150508
150471
150468
150514
150496
150551
150611
150501
150495
150546
150392
150421
150463
150499
150611
150621
150610
150581
150563
150526
150511
150511
150477
150549
150432
150441
150508
150568
150570
150543
150533
150553
150572
150604
150576
150582
150636
150672
150671
150663
150592
150639
150710
150726
150776
150809
150793
150736
150638
150622
150573
150563
150460
150419
150373
150308
150268
150304
150300
150207
150174
150248
150398
150364
150337
150351
150396
150485
150494
150499
150492
150489
150499
150480
150544
150629
150700
150592
150545
150558
150532
150463
150571
150672
150754
150645
150628
150487
150518
150556
150547
150592
150614
150638
150698
150665
150715
150638
150641
150591
150511
150506
150584
150673
150728
150722
150695
150697
150705
150683
150607
150557
150581
150682
150683
150670
150659
150710
150682
150602
150588
150593
150701
150803
150705
150682
150741
150730
150651
150569
150582
150668
150741
150788
150811
150780
150816
150777
150783
150801
150719
150787
150767
150713
150775
150700
150816
150803
150705
150718
150735
150780
150814
150744
150798
150802
150823
150871
150795
150745
150734
150709
150690
150719
150849
150823
150750
150793
150811
150750
150741
150835
150825
150810
150862
150800
150801
150790
150795
150673
150639
150684
150728
150778
150742
150774
150879
150872
150876
150753
150594
150662
150697
150736
150726
150727
150760
150708
150763
150885
150805
150745
150732
150776
150786
150747
150791
150806
150713
150778
150688
150665
150741
150720
150673
150694
150738
150705
150711
150790
150745
150704
150669
150730
150792
150794
150784
150831
150771
150694
150658
150758
150717
150741
150726
150786
150867
150880
150894
150802
150689
150675
150701
150741
150905
150835
150789
150820
150816
150860
150780
150786
150764
150778
150757
150757
150860
150823
150834
150700
150625
150586
150685
150851
150897
150832
150896
150882
150861
150849
150821
150840
150848
150872
150831
150809
150816
150825
150663
150628
150677
150848
150900
150992
150923
150889
150930
150924
150882
150772
150721
150814
150776
150750
150842
150864
150835
150804
150822
150865
150830
150760
150814
150892
150945

[HeartVoice API 返回]
# HeartVoice 专业 API 返回的聚合指标（不返回原始波形分析数据）
# 与下方 [算法提取后的结构化特征] 对照可定位本地算法差异
平均心率:72
最低心率:66
最高心率:74
诊断:SN
QRS宽度:100
P波宽度:103
PR间期:160
QT间期:333
QTc:365
房性早搏:0
室性早搏:0
信号质量:0.92
导联反接:true
是否异常:false

[算法提取后的结构化特征]
# 由 EcgFeatureExtractor.extract() + toPromptText() 在手机端重建
# 与手表端发给 DeepSeek 的提示词文本一致（DS 实际收到的数据）
# 注意: 用户 profile（年龄性别）未存入测量记录，手机端重建时为'未知'
#       助手如需年龄性别做医学判断，需用户单独提供

[用户属性]

[全局指标]
采样率:500Hz 时长:30.7s 总点数:15330
R波检测:26个 平均心率:56bpm 范围:53-69bpm
R波位置(样本索引):873,1914,2767,3870,4417,5021,5453,5831,6393,6603,6792,7543,7954,8319,8480,8662,9192,9526,10153,10402,11234,11603,12096,12250,13566,14227
RR间期序列(ms，[*]为偏离均值>20%的异常间期，多为早搏/误检):[2082*] [1706*] [2206*] 1094 [1208*] 864 [756*] 1124 [420*] [378*] [1502*] 822 [730*] [322*] [364*] 1060 [668*] [1254*] [498*] [1664*] [738*] 986 [308*] [1322*]
RR差值序列(ms):-376,500,-1112,114,-344,-108,368,-704,-42,1124,-680,-92,-408,42,696,-392,586,-756,1166,-926,248,-678,1014
SDNN:113.9ms RMSSD:234.0ms pNN50:100.0%
QRS宽度(本地估测,ms):67±11
PR间期(本地估测,ms):154±54
QT间期(本地估测,ms):392 QTc(Bazett):378ms QTc(Fridericia):383ms
R波平均振幅:0.24mV
R波极性:正向(负向提示导联反接/位置异常)
T/R振幅比:1.09(正常0.1-0.5，<0.1低平，>0.5高尖)
ST段偏移(本地估测,mV):0.020(正常±0.05，>0.1抬高，<-0.1压低)
信号质量:0.80 良好
噪声段:9.0-10.0s(噪声); 25.0-26.0s(噪声); 26.0-27.0s(噪声); 29.0-30.0s(噪声)

[节律判别特征]
R波可靠性:边缘
可靠性指标:极端RR占比4% 有效RR占比96% 相邻RR跳变0% R峰-时长一致性0.91 异常段占比33%
提示:R波定位稳定性边缘：异常段占比33%，节律判读需谨慎
RR变异系数:0.115(轻度不齐)
Poincaré散点形态:鱼雷形(轻度不齐)
短-长RR配对数(早搏代偿):4个
注意:R波定位稳定性边缘，节律判读需谨慎，不宜仅凭CV/Poincaré下房颤诊断。

[逐秒分段]
时段(s)  R波  振幅范围(mV)  峰峰值(mV)  最大斜率(mV/s)  RMS(mV)
0.0-1.0  0  -1.03~0.72  1.75  102.00  0.42
1.0-2.0  1  -0.61~0.62  1.23  80.50  0.30
2.0-3.0  0  -0.84~0.82  1.65  111.00  0.46  ← 本秒无R波(心率<60或代偿间隙)
3.0-4.0  1  -0.78~0.74  1.52  119.00  0.40
4.0-5.0  0  -0.79~0.68  1.47  104.00  0.28  ← 本秒无R波(心率<60或代偿间隙)
5.0-6.0  1  -1.17~0.92  2.09  101.00  0.50
6.0-7.0  0  -0.41~0.24  0.65  100.50  0.10  ← 本秒无R波(心率<60或代偿间隙)
7.0-8.0  1  -0.40~0.46  0.86  101.00  0.19
8.0-9.0  1  -0.54~0.40  0.94  113.00  0.21
9.0-10.0  0  -0.40~0.20  0.60  133.00  0.10  ← 噪声段
10.0-11.0  2  -0.33~0.39  0.72  82.00  0.12
11.0-12.0  1  -0.37~0.32  0.68  103.00  0.10
12.0-13.0  1  -0.40~0.26  0.67  145.00  0.10
13.0-14.0  2  -0.38~0.30  0.69  105.00  0.13  ← 短RR+代偿间隙(早搏可能)
14.0-15.0  0  -0.54~0.35  0.88  84.50  0.19  ← 代偿间隙(配合前秒短RR)
15.0-16.0  2  -0.71~0.77  1.48  109.50  0.30
16.0-17.0  2  -0.49~0.30  0.80  124.00  0.11
17.0-18.0  1  -0.50~0.38  0.88  100.50  0.20
18.0-19.0  1  -0.38~0.44  0.82  96.00  0.16
19.0-20.0  1  -0.32~0.33  0.65  107.50  0.12
20.0-21.0  2  -0.76~0.81  1.57  98.00  0.31  ← 短RR+代偿间隙(早搏可能)
21.0-22.0  0  -0.39~0.58  0.97  100.00  0.24  ← 代偿间隙(配合前秒短RR)
22.0-23.0  1  -0.49~0.42  0.90  85.50  0.23
23.0-24.0  1  -0.44~0.28  0.73  90.50  0.12
24.0-25.0  2  -0.48~0.27  0.75  105.50  0.11  ← 短RR+代偿间隙(早搏可能)
25.0-26.0  0  -0.41~0.22  0.63  107.00  0.10  ← 噪声段
26.0-27.0  0  -0.43~0.24  0.67  80.50  0.09  ← 噪声段
27.0-28.0  1  -0.38~0.33  0.71  110.50  0.10
28.0-29.0  1  -0.73~0.62  1.34  91.50  0.39
29.0-30.0  0  -0.43~0.21  0.64  97.50  0.10  ← 噪声段
逐秒RMS:0.421,0.304,0.457,0.404,0.285,0.499,0.103,0.185,0.214,0.096,0.122,0.101,0.104,0.131,0.191,0.296,0.109,0.200,0.155,0.120,0.306,0.236,0.227,0.125,0.111,0.099,0.086,0.103,0.385,0.098

[AI 解读]
# DeepSeek 返回的原始 JSON（未清洗，可能含 markdown 代码块包裹）
本次测量未使用 AI 分析（分析方法非 ds_*）
