========== ECG 算法诊断包 ==========
测量时间: 2026-07-17 17:40:47
测量时间戳:1784281247891
采样率:500 Hz
数据点数:15400
时长:30.8 秒
分析方法:ds_flash_balanced_raw
算法版本:v8
Tavily状态:已检索医学文献并注入提示词（房颤检测方法学/HRV参考值/QTc临床意义）

[原始 ECG 数据]
# 单位: mV×1000 整数（如 500 = 0.5mV，-1000 = -1.0mV）
# 采样率: 500 Hz，连续采样，无降采样无压缩
# 用途: 助手据此复现本地算法行为（基线漂移/噪声段/R波检测）
# 格式: 每行一个数值，行号=采样点索引（第1行=索引0，即 t=0.000s）
159082
159061
159106
159139
159170
159099
159086
159007
159058
159136
159096
159032
159021
159107
159207
159261
159266
159194
159161
159192
159105
159120
159152
159171
159140
159119
159154
159284
159169
159106
159131
159145
159243
159214
159270
159200
159164
159159
159135
159104
159132
159267
159374
159438
159295
159228
159243
159243
159255
159234
159162
159212
159236
159212
159168
159120
159154
159208
159210
159194
159008
159121
159093
159059
159154
159172
159159
159108
159110
158993
158850
158944
159083
159048
159103
159082
159111
159105
159138
159069
159043
159055
159077
159104
159079
158999
159070
159113
159096
159105
159080
159126
159221
159350
159215
159015
159098
158970
158934
159073
159116
159231
159323
159294
159263
159164
159158
159283
159495
159397
159287
159399
159578
159493
159441
159416
159393
159350
159386
159291
159157
159145
159167
159062
158997
158960
158903
158820
158714
158829
158895
158973
158961
158921
158965
158974
159036
159011
159068
159068
159068
159062
158959
159049
159217
159195
159234
159217
159155
159180
159197
159178
159174
159137
159125
159062
159036
159222
159371
159310
159242
159220
159164
159141
159024
158966
159124
159222
159282
159283
159256
159186
159215
159229
159234
159256
159322
159336
159307
159337
159354
159376
159290
159252
159191
159187
159317
159519
159462
159248
159250
159298
159234
159164
159270
159344
159370
159291
159164
159135
159196
159421
159411
159360
159252
159146
159209
159104
159071
159119
159202
159203
159180
159128
159239
159225
159250
159184
159093
159011
158972
159010
159080
159085
159150
159105
159086
159127
159096
159035
158894
158876
158931
158949
158912
158889
158944
158973
159003
159055
159040
159037
158956
158907
158908
158956
158968
158916
158973
158928
158814
158833
158971
159020
159097
159011
158934
158848
159008
159047
158987
159004
159031
158974
158989
158900
158853
158925
158995
159093
159034
159118
159045
158961
158961
158962
159042
159123
159077
159094
158993
159010
158988
158967
159033
159072
159039
158920
159007
159007
158871
158961
159094
159005
159059
158989
159014
158946
158952
158929
158928
159024
159045
158996
158988
158886
158929
158969
159039
159100
158957
158908
158880
158805
158800
158951
159064
158981
158909
158985
158979
158978
158996
159030
158948
158923
158916
158867
158895
159025
159075
159033
158997
158942
158907
158903
158885
158891
158826
158796
158829
158978
158945
158925
158933
158927
158919
158941
158917
158926
158926
159063
159019
158813
158750
158724
158742
158732
158771
158924
159085
159069
159012
158902
158871
158820
158777
158808
158813
158882
158851
158788
158720
158838
158843
158789
158783
158882
158815
158868
158794
158740
158708
158846
158892
158769
158762
158827
158980
159000
158952
158956
158986
158943
158912
158745
158714
158747
158856
158983
158887
158931
158878
158889
158917
158825
158832
158801
158846
158830
158877
158948
158997
158940
158921
158925
158971
159002
159032
158948
158907
158937
158856
158874
158791
158847
158937
158963
158946
158977
159052
159025
158969
158938
159003
159047
158951
158910
158927
158970
158957
159002
158948
159013
158907
158887
159012
159042
158928
158927
158987
159003
159009
158986
158904
158991
159076
159042
158964
158996
159004
159079
159001
158991
159146
159110
159039
158979
158943
159105
159140
159145
159183
159193
159192
159092
159036
159050
159034
159162
159131
159168
159133
159119
159148
159140
159160
159164
159149
159252
159270
159319
159206
159167
159278
159254
159190
159152
159172
159200
159167
159313
159418
159365
159268
159278
159395
159285
159212
159212
159081
159157
159307
159297
159280
159251
159316
159354
159398
159341
159321
159369
159379
159399
159325
159259
159219
159278
159300
159336
159296
159326
159395
159439
159410
159381
159492
159459
159475
159436
159370
159345
159456
159368
159336
159370
159441
159440
159524
159411
159378
159544
159541
159519
159495
159409
159525
159525
159438
159440
159361
159397
159510
159448
159414
159463
159500
159639
159586
159542
159442
159444
159480
159495
159619
159668
159669
159571
159703
159688
159422
159564
159642
159642
159792
159745
159801
159758
159608
159624
159602
159653
159685
159737
159902
159776
159672
159672
159611
159716
159873
160085
159954
159775
159647
159601
159697
159785
159782
159861
159951
159956
159860
159737
159735
159734
159708
159854
159908
159872
159939
159936
159912
159850
159852
159858
159987
160055
159997
159955
159954
159927
159877
159859
159841
159815
159748
159720
159661
159532
159402
159318
159279
159238
159195
159360
159356
159441
159583
159547
159475
159422
159451
159554
159561
159562
159665
159787
159764
159793
159692
159700
159687
159717
159707
159680
159712
159640
159650
159740
159800
159859
159807
159690
159739
159663
159755
159818
159760
159622
159570
159751
159869
159896
159843
159825
159878
159864
159863
159809
159806
159883
159910
159901
159845
159860
160013
160026
159961
159862
159912
159949
159934
160001
159928
159928
160025
160081
160053
160099
160003
160040
160079
160058
160001
160037
160161
160169
160107
160140
160031
159999
160062
160102
160125
160100
160154
160238
160169
160172
160054
160096
160184
160248
160322
160295
160165
160166
160163
160121
160034
160199
160262
160301
160388
160313
160308
160311
160289
160244
160211
160305
160395
160343
160438
160433
160467
160510
160535
160488
160523
160468
160506
160592
160605
160594
160636
160688
160627
160650
160649
160693
160631
160574
160639
160566
160651
160896
160924
160879
160772
160748
160631
160634
160721
160803
160877
160808
160824
160896
160850
160887
160974
160891
160885
160802
160870
161041
161070
160917
160865
160786
160797
160939
160967
160961
161076
160936
160928
160984
160987
161102
161083
161093
161047
161036
160998
160960
160973
160971
160986
161047
160930
160807
160755
160835
160928
160978
160935
160869
160749
160726
160790
160817
160890
160746
160742
160783
160642
160656
160648
160602
160648
160610
160557
160532
160655
160650
160655
160498
160404
160509
160596
160446
160445
160457
160502
160521
160396
160244
160170
160182
160300
160400
160393
160316
160273
160416
160287
160200
160160
160237
160196
160220
160242
160216
160324
160369
160307
160201
160153
160220
160256
160244
160322
160311
160234
160170
160140
160088
160148
160319
160378
160247
160143
160166
160300
160300
160337
160312
160211
160229
160225
160242
160238
160388
160327
160263
160223
160192
160153
160150
160256
160333
160350
160230
160231
160261
160255
160314
160324
160301
160291
160344
160238
160201
160330
160411
160489
160487
160362
160354
160369
160372
160496
160445
160390
160417
160434
160499
160418
160419
160447
160488
160429
160324
160310
160321
160322
160296
160302
160344
160458
160505
160542
160509
160386
160355
160394
160493
160460
160478
160436
160382
160468
160567
160542
160382
160334
160378
160596
160681
160506
160458
160455
160416
160481
160481
160494
160438
160455
160470
160371
160411
160520
160520
160411
160433
160471
160493
160354
160405
160478
160505
160567
160493
160419
160336
160391
160456
160418
160427
160361
160358
160385
160242
160259
160334
160392
160308
160350
160491
160406
160344
160202
160127
160168
160218
160349
160391
160300
160180
160230
160243
160219
160188
160314
160309
160259
160241
160189
160226
160203
160221
160198
160077
160127
160182
160241
160264
160211
160223
160214
160130
160114
160087
160136
160205
160257
160292
160300
160289
160182
160172
160246
160156
160189
160262
160277
160259
160193
160203
160147
160143
160108
160104
160174
160199
160195
160186
160176
160262
160464
160337
160300
160244
160324
160355
160291
160188
160160
160208
160238
160216
160314
160297
160142
160131
160263
160298
160285
160243
160228
160308
160265
160178
160193
160225
160169
160122
160116
160154
160302
160326
160236
160193
160245
160238
160228
160178
160120
160168
160194
160198
160214
160206
160213
160203
160196
160226
160082
160028
159922
159887
159852
159682
159707
159639
159594
159512
159490
159518
159572
159640
159662
159693
159822
159870
159846
159818
159763
159854
159877
159866
159903
159842
159754
159788
159735
159742
159731
159781
159854
159810
159842
159748
159817
159793
159762
159818
159886
159786
159748
159785
159791
159773
159760
159787
159854
159782
159901
159915
159831
159768
159740
159730
159838
159864
159842
159780
159745
159725
159751
159909
160022
159920
159835
159825
159844
159769
159736
159806
159782
159775
159751
159783
159762
159749
159799
159834
159876
159887
159755
159682
159629
159618
159588
159748
159770
159736
159744
159712
159646
159653
159601
159579
159645
159704
159742
159868
159811
159760
159747
159788
159712
159641
159686
159722
159744
159750
159700
159780
159857
159865
159888
159788
159744
159780
159745
159785
159775
159766
159741
159827
159958
159967
159931
159795
159879
159982
159933
160006
159933
159950
160052
160003
159907
159767
159807
159897
159966
160021
159963
159942
159999
159973
160088
160023
160002
159967
159972
160001
159982
159929
160053
159946
159838
159915
159931
160010
160009
159998
159953
160010
159953
159919
159945
160013
160025
160008
159929
159936
159942
160017
160053
160058
160162
160083
160113
159956
159997
160104
160147
160214
160193
159990
160070
160130
160146
160091
160105
159987
160031
160149
160211
160188
160124
160174
160106
160121
160069
160143
160299
160304
160121
160045
160036
160005
160185
160319
160160
160149
160122
160188
160260
160141
160140
160191
160249
160164
160099
160211
160240
160259
160233
160168
160215
160224
160268
160319
160208
160143
160134
160119
160188
160215
160238
160299
160370
160427
160305
160229
160284
160448
160380
160244
160242
160262
160297
160308
160270
160417
160404
160362
160370
160425
160434
160349
160281
160223
160313
160403
160537
160487
160433
160285
160326
160279
160317
160420
160390
160327
160285
160325
160375
160374
160337
160403
160424
160359
160360
160380
160352
160359
160402
160313
160312
160321
160360
160408
160258
160279
160217
160312
160361
160337
160356
160291
160171
160291
160272
160343
160306
160339
160416
160283
160236
160261
160308
160387
160368
160394
160334
160350
160295
160315
160379
160497
160514
160394
160337
160362
160332
160321
160300
160315
160351
160466
160511
160528
160382
160409
160408
160449
160456
160410
160418
160310
160362
160413
160388
160368
160388
160362
160309
160355
160414
160465
160526
160503
160485
160412
160421
160493
160550
160451
160473
160479
160419
160347
160404
160484
160412
160405
160491
160462
160395
160456
160423
160543
160526
160536
160582
160585
160442
160328
160310
160265
160280
160240
160411
160606
160616
160553
160481
160424
160459
160514
160519
160415
160370
160443
160478
160423
160385
160466
160451
160340
160371
160465
160429
160328
160320
160410
160485
160452
160483
160447
160438
160452
160436
160533
160493
160493
160468
160411
160378
160321
160452
160550
160590
160620
160557
160523
160482
160448
160477
160559
160664
160599
160477
160519
160675
160659
160551
160540
160536
160526
160633
160665
160497
160504
160573
160569
160530
160503
160498
160488
160467
160498
160578
160623
160559
160478
160564
160573
160561
160608
160549
160557
160498
160556
160559
160598
160475
160364
160421
160543
160561
160568
160597
160615
160550
160476
160430
160425
160506
160634
160703
160618
160528
160567
160607
160625
160623
160682
160814
160823
160809
160709
160498
160400
160332
160295
160256
160203
160197
160187
160073
160046
159992
159900
159935
160005
159964
159884
159889
159953
159912
159874
159753
159721
159834
159945
159941
159790
159829
159693
159516
159492
159395
159289
159278
159267
159185
158999
158944
158923
158839
158742
158635
158678
158636
158579
158554
158372
158235
158120
158118
158117
157918
157865
157745
157793
157797
157680
157575
157581
157529
157475
157398
157460
157504
157510
157478
157384
157345
157357
157295
157303
157210
157103
157082
157152
157080
157172
157154
157150
157132
157001
156970
157005
157041
157140
157075
157052
156961
156990
156993
156915
157021
157030
156959
156977
156974
156909
156997
156915
156874
156859
156847
156954
157002
157013
156999
156934
156920
156809
156843
156895
156808
156867
156905
156842
156883
156830
156826
156892
156826
156813
156785
156707
156699
156759
156808
156750
156772
156809
156856
156784
156797
156763
156679
156744
156764
156752
156659
156573
156565
156650
156686
156666
156691
156713
156623
156576
156751
156802
156755
156677
156680
156652
156711
156799
156691
156620
156626
156588
156680
156598
156507
156590
156602
156588
156623
156632
156615
156583
156536
156428
156491
156404
156346
156450
156549
156511
156377
156309
156294
156337
156338
156427
156538
156530
156447
156430
156438
156589
156587
156463
156330
156391
156432
156369
156344
156393
156395
156467
156551
156460
156447
156507
156463
156379
156491
156471
156448
156336
156337
156390
156397
156479
156427
156360
156301
156290
156349
156379
156511
156522
156489
156439
156401
156350
156327
156352
156461
156506
156427
156361
156320
156436
156527
156466
156420
156371
156413
156457
156439
156469
156359
156330
156320
156353
156355
156326
156362
156424
156411
156429
156314
156368
156412
156356
156328
156248
156223
156311
156378
156456
156399
156318
156375
156393
156381
156377
156298
156252
156261
156280
156298
156321
156431
156402
156237
156100
156174
156272
156252
156173
156081
156213
156305
156206
156199
156095
156102
156242
156198
156084
156111
156134
156301
156301
156266
156164
156198
156153
156087
156040
156016
156042
156042
156224
156252
156179
156167
156217
156307
156317
156223
156171
156116
156088
156116
156089
156195
156319
156230
156258
156106
156139
156239
156206
156229
156186
156111
156121
156090
156147
156216
156191
156300
156363
156377
156240
156240
156224
156216
156191
156077
156102
156023
156117
156246
156327
156370
156425
156311
156280
156264
156277
156324
156289
156177
156163
156277
156264
156352
156254
156099
156059
156100
156249
156238
156180
156213
156229
156223
156188
156155
156231
156117
156063
156025
156059
156186
156254
156173
156179
156190
156176
156210
156167
156124
156127
156275
156213
156192
156172
156116
156060
156052
156127
156085
156105
156023
155963
155992
156108
156132
156200
156293
156246
156144
156040
156085
156065
156084
156082
156005
156158
156270
156263
156298
156178
156165
156122
156088
156137
156146
156128
156176
156219
156177
156101
156245
156276
156216
156231
156169
156223
156112
156051
156048
155980
156088
156244
156226
156122
156163
156241
156291
156287
156231
156171
156136
156060
156111
156166
156273
156422
156341
156275
156266
156172
156235
156225
156134
156124
156054
156097
156223
156190
156166
156075
156139
156249
156143
155993
155968
156084
156152
156143
156189
156084
156163
156066
156096
156149
156096
156067
155993
156010
156105
156142
156080
156057
156127
156064
156023
155903
155913
155945
155958
155978
156032
156069
156045
155980
155817
155855
155963
156043
155956
155902
155968
155979
156092
155984
156034
156129
156080
156085
156087
156056
156071
156128
156034
155916
155889
155921
155799
155615
155440
155409
155429
155352
155296
155366
155368
155490
155625
155627
155581
155455
155466
155537
155677
155733
155612
155581
155610
155655
155582
155519
155454
155508
155628
155593
155550
155501
155581
155604
155577
155536
155433
155407
155445
155423
155443
155370
155380
155374
155320
155302
155399
155385
155380
155293
155322
155432
155369
155358
155374
155242
155194
155220
155253
155174
155189
155255
155308
155289
155285
155173
155210
155296
155136
155191
155074
155054
155061
155080
155008
155013
155201
155224
155136
155164
155089
155114
155106
155152
155108
155062
154983
154989
154975
154993
154923
154994
155119
155035
154961
155017
155082
155023
155094
155123
155095
155082
155036
154991
154958
154995
155009
155063
155103
155227
155224
155142
155140
155075
155038
154973
154996
155039
155054
155094
155111
155156
155185
155135
155129
155103
155141
155099
155144
155115
155050
155097
155057
154974
155004
155128
155251
155334
155235
155052
155113
155126
155114
155144
155221
155197
155291
155119
155149
155162
155176
155247
155223
155234
155214
155268
155324
155237
155151
155109
155208
155338
155334
155301
155163
155119
155158
155248
155192
155209
155189
155169
155189
155241
155253
155300
155310
155338
155252
155210
155215
155363
155310
155332
155312
155296
155312
155312
155358
155246
155154
155209
155462
155580
155428
155377
155343
155312
155326
155399
155356
155340
155339
155393
155334
155244
155331
155349
155474
155446
155344
155337
155303
155377
155348
155222
155237
155234
155320
155399
155404
155557
155564
155418
155330
155254
155217
155282
155254
155264
155176
155272
155442
155447
155482
155426
155412
155420
155334
155300
155335
155384
155379
155342
155367
155348
155298
155390
155373
155397
155291
155291
155374
155281
155294
155392
155410
155367
155328
155364
155440
155433
155401
155283
155250
155174
155295
155394
155463
155356
155278
155353
155390
155445
155483
155450
155422
155365
155375
155284
155252
155348
155401
155332
155310
155396
155527
155553
155463
155392
155283
155389
155415
155351
155305
155330
155312
155305
155284
155315
155178
155287
155492
155555
155389
155423
155432
155324
155336
155310
155305
155407
155586
155455
155313
155377
155449
155403
155449
155468
155356
155303
155403
155443
155359
155473
155431
155365
155381
155512
155514
155504
155492
155380
155245
155118
155279
155400
155582
155556
155487
155553
155518
155375
155316
155372
155378
155343
155326
155283
155276
155367
155491
155553
155528
155398
155266
155340
155439
155470
155439
155424
155379
155437
155497
155456
155425
155348
155251
155248
155247
155418
155622
155533
155430
155426
155492
155503
155421
155399
155283
155256
155292
155293
155502
155395
155405
155445
155458
155456
155456
155523
155466
155482
155471
155395
155477
155508
155539
155543
155595
155668
155591
155555
155467
155524
155494
155461
155400
155412
155488
155673
155673
155644
155661
155644
155590
155548
155470
155452
155505
155654
155643
155720
155727
155662
155702
155542
155538
155569
155660
155586
155562
155631
155783
155840
155684
155674
155678
155690
155708
155621
155519
155549
155706
155796
155827
155706
155641
155704
155661
155677
155718
155631
155622
155595
155666
155628
155619
155639
155618
155623
155611
155570
155676
155730
155808
155746
155696
155684
155628
155667
155593
155499
155469
155512
155733
155724
155835
155796
155708
155655
155566
155506
155587
155607
155621
155644
155656
155652
155608
155532
155660
155668
155650
155555
155682
155787
155880
155971
155916
155871
155833
155890
155809
155675
155667
155595
155553
155539
155479
155408
155315
155288
155231
155106
155163
155093
155209
155264
155281
155411
155386
155305
155305
155280
155335
155302
155410
155439
155398
155395
155428
155465
155464
155490
155559
155523
155568
155486
155418
155509
155499
155413
155345
155253
155380
155553
155294
155268
155439
155601
155494
155581
155449
155284
155337
155379
155339
155305
155323
155475
155513
155431
155396
155474
155462
155394
155439
155474
155479
155453
155402
155376
155412
155409
155438
155398
155408
155354
155234
155308
155321
155353
155229
155312
155348
155349
155310
155344
155315
155243
155163
155225
155372
155528
155430
155332
155371
155268
155217
155321
155312
155346
155386
155416
155355
155254
155223
155230
155306
155276
155317
155325
155249
155271
155428
155330
155316
155322
155250
155185
155229
155294
155390
155477
155441
155437
155308
155285
155155
155283
155419
155407
155437
155347
155368
155425
155544
155515
155446
155343
155339
155373
155470
155390
155328
155311
155249
155367
155428
155416
155504
155458
155534
155552
155522
155530
155538
155523
155432
155491
155459
155356
155424
155462
155668
155623
155645
155602
155448
155549
155512
155379
155373
155548
155668
155618
155586
155520
155520
155544
155616
155691
155595
155570
155676
155581
155638
155601
155549
155576
155651
155594
155537
155516
155559
155610
155483
155486
155518
155639
155661
155706
155617
155515
155539
155529
155556
155590
155497
155496
155529
155452
155492
155593
155587
155624
155619
155520
155544
155572
155532
155582
155536
155546
155592
155566
155555
155541
155503
155469
155402
155381
155552
155617
155596
155575
155502
155538
155476
155421
155495
155520
155545
155496
155559
155613
155721
155622
155552
155566
155553
155566
155720
155762
155635
155527
155500
155566
155545
155498
155568
155602
155673
155672
155693
155557
155501
155534
155490
155525
155478
155402
155524
155585
155737
155718
155591
155635
155659
155677
155680
155610
155590
155586
155703
155592
155582
155649
155661
155739
155793
155696
155662
155656
155661
155693
155735
155804
155753
155714
155743
155823
155882
155809
155719
155730
155682
155722
155699
155792
155753
155810
155881
155771
155673
155637
155630
155481
155531
155779
155926
155996
155981
155937
155964
155952
155861
155863
155922
155988
156055
156091
155924
155887
155971
156008
156029
155965
155972
156166
156045
156069
156037
156048
156062
156130
156178
156185
156114
156002
155959
155962
156028
156013
156094
156119
156131
156101
156092
156091
156109
156140
156039
155889
155961
156103
155952
156059
156169
156228
156217
156101
156075
156047
156096
156113
155953
156033
156001
156039
155986
156139
156040
155993
155993
156031
156064
155985
155914
156006
156066
156087
155983
155867
155905
156033
156124
156038
156018
155912
155876
155944
156017
155943
155969
156021
156069
155995
156001
155985
156082
156095
156052
155911
155966
155976
155951
156013
156055
155992
155962
156019
156036
156064
156150
156092
156001
155940
156100
156217
156191
156121
156087
156054
156052
156034
155993
156046
156104
156070
156205
156208
156236
156155
156157
156211
156291
156207
156116
156153
156109
156172
156173
155985
156091
156162
156256
156278
156200
156180
156160
156124
156044
156029
156027
156024
156023
156098
156114
156217
156345
156358
156276
156283
156233
156113
156140
156188
156055
156054
156133
156237
156241
156217
156162
156213
156171
156111
156053
156181
156292
156224
156272
156284
156267
156351
156380
156399
156338
156349
156408
156423
156336
156275
156289
156361
156450
156497
156435
156455
156437
156425
156363
156270
156242
156234
156108
155953
155919
156025
156148
156252
156093
155939
155980
156010
156047
156215
156072
156096
156109
156314
156412
156373
156260
156241
156270
156416
156323
156424
156566
156491
156293
156281
156266
156337
156334
156364
156496
156523
156449
156498
156522
156467
156510
156591
156454
156475
156468
156453
156517
156539
156504
156493
156567
156517
156479
156458
156495
156593
156526
156487
156557
156587
156619
156642
156645
156657
156534
156449
156512
156493
156517
156499
156698
156740
156713
156678
156520
156571
156659
156710
156718
156653
156670
156717
156697
156693
156587
156579
156546
156637
156729
156693
156854
156848
156786
156747
156667
156608
156645
156628
156644
156721
156814
156812
156796
156699
156650
156682
156772
156789
156722
156668
156695
156758
156793
156796
156730
156634
156661
156808
156842
156802
156862
156826
156752
156707
156667
156701
156835
156871
156884
156807
156843
156800
156781
156703
156812
156975
157017
156955
156861
156798
156837
156781
156719
156809
156880
156698
156685
156751
156828
156848
156979
156987
156956
156917
156942
156871
156809
156861
156871
156939
157013
156951
156824
156892
157037
157039
156951
156933
156979
157070
157070
157054
156996
156966
156965
156993
156983
156992
157028
156956
157022
157053
157098
157174
157060
157038
157033
157098
157250
157206
157140
157166
157046
157004
156987
157105
157179
157252
157226
157246
157242
157232
157217
157230
157134
157098
157095
157264
157258
157247
157225
157179
157195
157196
157143
157300
157256
157107
157150
157113
157151
157230
157155
157113
157133
157185
157201
157171
157163
157058
156998
157083
157080
157148
157115
157244
157188
157097
157050
157058
157113
157023
157075
157095
157019
157034
157092
157136
157173
157068
157003
157040
157057
157093
157045
157076
157145
157103
157035
156968
157075
157093
157002
156951
156986
157063
157007
156944
156972
157007
157072
157034
156995
156968
156973
157007
157069
157057
157039
156986
156993
156970
156970
156997
157107
157111
156951
156824
156915
156909
156915
157019
157027
157075
157076
157041
157055
157071
157117
157056
157000
156933
156983
156938
157062
156996
156919
156960
156987
157019
157012
156994
156987
157005
157056
157029
157000
156986
156971
156874
156965
157066
156993
156957
156975
156854
156824
156986
157091
157000
157023
157051
157050
156981
156924
156938
157016
157037
156929
156890
156907
156958
157109
157071
156993
157064
157101
157014
156996
156956
156942
156852
156765
156858
157006
157058
157008
157002
156943
156890
156916
156986
157070
156955
156897
156959
156868
156867
156900
156920
156843
156905
156888
157081
157047
156951
156879
156885
156920
156911
156985
157008
156964
156931
156926
157021
156998
156842
156748
156755
156915
157088
157077
157023
156921
156947
156920
156839
156764
156732
156759
156735
156821
156825
156796
156701
156744
156952
157086
156988
156933
156909
156856
156872
156854
156834
156869
156953
156877
157020
156871
156834
156851
156736
156719
156755
156849
156977
156895
156857
156927
156980
156959
156892
156777
156817
156918
156922
156965
156987
156932
156784
156848
156895
156800
156897
156872
156932
156938
156934
156902
156850
156834
156866
156876
156941
156927
156892
156728
156796
156741
156703
156857
156896
156887
156835
156887
156781
156829
156731
156715
156633
156687
156853
156889
156913
156977
156936
156845
156798
156736
156719
156702
156593
156590
156626
156652
156717
156859
156934
156888
156831
156775
156755
156636
156676
156796
156906
156869
156736
156697
156745
156821
156791
156893
156926
156905
156974
156901
156905
157027
156994
156897
156950
156978
156763
156615
156660
156759
156831
156709
156606
156510
156466
156413
156480
156444
156427
156429
156442
156481
156493
156537
156647
156658
156651
156636
156508
156581
156648
156656
156792
156842
156777
156676
156707
156843
156896
156671
156583
156566
156662
156715
156688
156751
156864
156858
156804
156734
156717
156746
156640
156644
156728
156789
156807
156796
156786
156825
156780
156764
156826
156827
156826
156812
156766
156778
156761
156712
156741
156794
156798
156741
156783
156623
156587
156746
156727
156628
156627
156749
156770
156672
156626
156627
156703
156776
156796
156723
156682
156574
156565
156595
156563
156639
156710
156686
156639
156593
156468
156516
156749
156723
156533
156381
156409
156539
156730
156734
156657
156697
156607
156573
156615
156587
156616
156526
156579
156641
156480
156549
156541
156632
156606
156371
156343
156396
156431
156511
156564
156584
156640
156585
156437
156254
156339
156400
156530
156548
156523
156526
156439
156401
156325
156395
156503
156644
156565
156633
156549
156497
156484
156450
156434
156497
156556
156479
156415
156461
156441
156616
156550
156543
156527
156485
156486
156479
156485
156455
156384
156355
156448
156584
156649
156554
156432
156402
156454
156389
156355
156497
156650
156584
156457
156470
156501
156502
156487
156452
156460
156510
156549
156500
156556
156453
156511
156548
156569
156500
156438
156441
156372
156335
156369
156457
156464
156493
156433
156488
156475
156449
156500
156386
156456
156493
156511
156541
156474
156384
156355
156415
156425
156419
156332
156368
156497
156561
156412
156304
156299
156410
156449
156540
156553
156439
156347
156420
156403
156331
156293
156360
156374
156351
156359
156343
156310
156345
156351
156268
156307
156362
156320
156328
156406
156396
156388
156384
156311
156217
156293
156305
156392
156413
156405
156279
156218
156209
156293
156458
156436
156446
156434
156363
156399
156371
156361
156360
156339
156281
156248
156306
156328
156413
156359
156226
156227
156337
156431
156411
156253
156113
156082
156142
156191
156229
156404
156413
156262
156211
156217
156283
156336
156327
156238
156123
156134
156177
156172
156199
156211
156298
156277
156213
156259
156162
156192
156219
156304
156377
156346
156335
156289
156261
156261
156209
156244
156266
156236
156128
156174
156332
156314
156292
156221
156311
156211
156279
156324
156239
156184
156324
156331
156273
156217
156127
156271
156418
156356
156239
156237
156342
156293
156236
156216
156191
156205
156251
156247
156336
156351
156318
156350
156322
156349
156277
156176
156073
156066
156069
156132
156325
156348
156399
156357
156236
156210
156226
156223
156234
156199
156147
156213
156147
156153
156168
156137
156274
156286
156297
156230
156153
156200
156237
156233
156026
155980
156092
156344
156444
156420
156313
156289
156259
156203
156159
156159
156162
156179
156186
156204
156144
156118
156215
156157
156142
156143
156047
156060
156147
156199
156243
156185
156198
156195
156072
155933
155850
155968
156084
156063
156044
156071
156100
156110
156067
156094
156091
156141
156105
155991
156149
156196
156140
156040
156021
156131
156127
156003
155970
156055
156151
156068
156090
156055
156095
156153
156075
155940
155908
155907
155917
155895
156015
156105
156172
156155
156024
155862
155817
155748
155844
155873
155912
155900
155761
155767
155776
155846
155977
155941
155905
155817
155820
155848
155737
155763
155781
155878
155796
155727
155705
155778
155777
155775
155746
155716
155654
155682
155735
155736
155738
155848
155802
155837
155795
155826
155947
155916
155954
155857
155833
155826
155765
155637
155474
155501
155572
155567
155355
155243
155251
155310
155334
155342
155333
155386
155443
155481
155365
155162
155216
155473
155631
155718
155632
155706
155775
155659
155657
155622
155675
155573
155557
155598
155655
155769
155741
155690
155674
155548
155559
155721
155792
155716
155644
155647
155674
155730
155680
155485
155585
155726
155892
155814
155622
155599
155584
155644
155713
155775
155734
155641
155683
155675
155663
155656
155640
155577
155616
155647
155647
155615
155654
155625
155586
155621
155618
155676
155613
155487
155540
155688
155705
155721
155615
155631
155611
155622
155565
155422
155548
155538
155520
155652
155624
155599
155563
155568
155571
155592
155568
155596
155587
155549
155555
155550
155604
155476
155393
155448
155592
155639
155660
155625
155663
155654
155611
155499
155566
155598
155585
155617
155658
155622
155654
155606
155534
155666
155696
155612
155655
155606
155586
155538
155555
155639
155698
155660
155556
155596
155616
155599
155511
155506
155514
155519
155626
155608
155491
155481
155523
155542
155610
155801
155697
155604
155623
155511
155515
155486
155554
155514
155475
155501
155514
155622
155648
155549
155482
155558
155579
155676
155638
155569
155509
155503
155559
155598
155544
155543
155557
155488
155412
155495
155640
155695
155569
155527
155557
155554
155527
155571
155625
155668
155547
155417
155349
155333
155514
155535
155557
155574
155594
155570
155582
155504
155543
155600
155477
155420
155521
155536
155568
155635
155584
155612
155623
155639
155585
155461
155551
155544
155543
155538
155549
155595
155657
155513
155407
155421
155430
155494
155538
155589
155577
155553
155641
155571
155506
155537
155512
155532
155497
155445
155352
155388
155482
155552
155640
155680
155654
155661
155648
155573
155511
155496
155493
155394
155510
155524
155569
155623
155511
155454
155444
155580
155564
155581
155638
155597
155581
155586
155507
155394
155366
155484
155575
155625
155516
155448
155447
155407
155439
155540
155544
155508
155494
155422
155493
155526
155484
155489
155484
155537
155596
155527
155441
155467
155460
155399
155388
155271
155254
155469
155568
155555
155480
155406
155436
155519
155586
155475
155374
155475
155442
155411
155462
155519
155643
155537
155520
155516
155533
155512
155388
155469
155594
155572
155535
155348
155302
155489
155550
155440
155326
155463
155522
155581
155457
155500
155491
155515
155636
155619
155518
155478
155472
155499
155450
155420
155390
155381
155344
155386
155514
155595
155614
155586
155556
155489
155473
155404
155404
155540
155542
155543
155493
155385
155378
155364
155445
155470
155511
155516
155388
155479
155497
155496
155470
155337
155437
155651
155508
155520
155464
155419
155315
155317
155420
155465
155453
155496
155528
155545
155442
155508
155558
155535
155519
155483
155554
155504
155481
155411
155416
155412
155447
155486
155401
155490
155542
155501
155473
155466
155435
155492
155637
155550
155472
155376
155437
155476
155489
155527
155525
155512
155497
155463
155483
155447
155508
155621
155490
155462
155475
155463
155413
155369
155380
155403
155491
155509
155539
155546
155361
155296
155267
155400
155444
155446
155512
155463
155484
155441
155464
155477
155461
155457
155467
155398
155473
155380
155283
155390
155370
155500
155438
155312
155419
155443
155399
155390
155354
155375
155335
155229
155269
155253
155183
155189
155280
155281
155424
155497
155352
155394
155374
155257
155262
155220
155246
155259
155275
155344
155269
155220
155206
155270
155403
155306
155292
155228
155197
155200
155185
155167
155207
155303
155353
155411
155504
155541
155467
155404
155420
155447
155449
155298
155312
155328
155434
155370
155349
155346
155205
155089
155042
155030
154893
154871
154828
154851
154812
154758
154727
154782
154861
154912
154993
154989
155098
155152
155027
154999
155064
155116
155138
155184
155165
155067
155073
155082
154934
154977
155124
155239
155182
155168
155161
155152
155230
155152
155236
155274
155135
155065
154931
154989
155045
155124
155243
155324
155270
155274
155229
155308
155347
155253
155205
155195
155124
155217
155143
155041
155091
155272
155259
155181
155174
155128
155216
155268
155216
155245
155128
155110
155085
155189
155172
155006
155057
155056
155006
155071
155074
155086
155148
155083
155110
155126
155210
155220
155159
155098
154954
154926
155023
155036
155074
155053
155102
155121
154994
154998
155108
155156
155193
155121
154988
154949
155004
155016
155050
155135
155178
155078
155087
155007
154972
155025
155113
155017
155019
155147
155096
155103
155084
155073
155161
155098
155078
155113
155085
155101
155073
155132
155092
155039
154905
154810
154900
155092
155132
155078
155101
155085
155138
155187
155128
155018
155078
155153
155092
155104
155053
155095
155171
155210
155285
155216
155149
155147
155183
155141
155106
155127
155170
155114
155055
155043
155085
155108
155140
155222
155149
155219
155207
155101
155089
155066
155227
155389
155294
155170
155190
155271
155217
155165
155227
155319
155236
155140
155179
155227
155271
155280
155119
155121
155102
155089
155200
155284
155197
155228
155291
155194
155184
155107
155245
155252
155271
155156
155053
155139
155169
155210
155467
155334
155226
155147
155216
155218
155176
155166
155203
155208
155178
155160
155117
155062
155134
155278
155361
155203
155195
155250
155172
155191
155276
155208
155150
155078
155127
155261
155230
155079
155064
155133
155192
155135
155167
155124
155169
155156
155123
155209
155169
155082
155033
155052
155183
155260
155164
155186
155107
155059
155158
155113
155083
155156
155273
155311
155278
155118
154974
154990
155044
155096
155156
155136
155132
155122
155156
155184
155235
155058
155057
155130
155167
155160
155072
155039
155048
155030
155043
155164
155178
155114
155092
155104
155176
155067
155136
155229
155086
155099
155173
155094
155111
155123
155106
155089
155150
155222
155151
155112
155101
155221
155268
155220
155193
155219
155271
155230
155192
155095
155107
155159
155202
155039
155127
155160
155145
155082
155085
155153
155236
155270
155195
155173
155157
155153
155164
155242
155150
155150
155102
155091
155124
155195
155228
155281
155233
155273
155216
155200
155175
155269
155363
155248
155252
155233
155177
155071
155034
155245
155319
155226
155202
155203
155328
155241
155162
155160
155224
155257
155198
155192
155151
155133
155197
155224
155273
155240
155294
155291
155226
155132
155182
155201
155240
155484
155434
155322
155286
155306
155401
155335
155291
155320
155326
155332
155295
155236
155149
155231
155287
155345
155379
155260
155304
155336
155408
155413
155298
155298
155361
155344
155381
155314
155226
155219
155248
155278
155294
155289
155411
155384
155356
155298
155376
155384
155337
155342
155210
155260
155352
155459
155461
155409
155471
155464
155311
155238
155360
155396
155329
155328
155361
155359
155354
155351
155334
155311
155276
155399
155374
155298
155346
155415
155329
155353
155419
155359
155263
155197
155278
155349
155421
155596
155591
155392
155342
155248
155249
155349
155326
155304
155178
155195
155323
155333
155405
155372
155211
155222
155255
155225
155250
155184
155213
155254
155267
155207
155171
155192
155141
155171
155140
155029
155045
155147
155205
155161
155121
155112
155160
155124
155155
155182
155173
155124
155030
155055
155056
155143
155188
155107
155004
155086
155147
155207
155156
155171
155195
155208
155285
155138
155110
155209
155313
155272
155144
155032
155022
154960
154896
154826
154736
154534
154540
154609
154664
154686
154712
154724
154727
154761
154708
154763
154795
154736
154743
154849
154831
154844
154846
154904
154981
154999
154909
154946
154884
154818
154772
154953
155008
155001
154941
154884
154880
154942
154861
154899
154906
154932
155007
154927
154895
154870
154954
154941
154901
154932
154917
154951
154907
154869
154916
154934
154992
155008
154960
154993
154977
154961
154908
154882
154953
154929
155000
154908
154955
154897
154776
154748
154776
154747
154863
154852
154882
154954
154922
154949
154893
154801
154857
154843
154930
154874
154812
154941
154949
154954
154806
154834
154830
154849
154911
154777
154879
154956
154939
154875
154887
154880
154802
154746
154762
154838
154907
154842
154872
154924
154836
154976
154941
154923
154865
154740
154669
154782
154917
155138
155066
154970
154964
154861
154837
154792
154792
154805
154823
154810
154839
154864
154843
154795
154835
154874
154926
154909
154838
154739
154771
154848
154897
154863
154792
154766
154838
154777
154742
154793
154896
154970
154892
154850
154804
154791
154829
154929
154904
154823
154694
154753
154796
154755
154757
154738
154846
154822
154846
154928
154793
154750
154778
154801
154803
154849
154820
154839
154847
154898
154797
154779
154817
154753
154703
154691
154684
154825
154931
154926
154892
154867
154912
154842
154817
154774
154851
154855
154975
155130
154993
154967
155009
154932
154801
154761
154646
154823
154931
154859
154852
154904
154865
154830
154871
154917
154880
154808
154728
154749
154901
154966
154952
154954
154905
154798
154784
154797
154679
154731
154867
154958
154990
155040
155064
154939
154966
154960
154905
154865
154828
154846
154778
154815
154911
154886
154896
154888
154736
154800
154849
154900
154803
154819
154824
154822
154848
154776
154701
154797
154955
155180
155111
155003
154933
154879
154808
154868
154909
154804
154720
154892
154853
154872
154896
154857
154884
154954
154849
154841
154869
154959
155067
154992
155008
154963
154942
154891
154817
154725
154840
154946
154992
154966
154865
154864
154902
154867
154859
154820
154830
154924
154945
154892
154879
154828
154861
155035
154930
154774
154669
154824
154885
154825
154883
154843
154939
154937
154841
154939
154884
154924
154847
154762
154703
154712
154798
154842
154884
154949
154978
155081
154942
154805
154824
154820
154830
154824
154729
154813
154794
154788
154822
154804
154781
154856
154878
154876
154843
154780
154725
154801
154760
154778
154711
154644
154725
154744
154724
154770
154834
154907
154890
154731
154707
154681
154649
154692
154694
154709
154667
154644
154682
154701
154701
154679
154809
154713
154664
154675
154665
154665
154642
154603
154617
154695
154713
154655
154678
154736
154603
154589
154516
154560
154503
154598
154595
154587
154695
154632
154520
154571
154574
154571
154591
154581
154559
154613
154608
154565
154507
154569
154648
154593
154568
154561
154554
154567
154552
154562
154544
154589
154587
154662
154541
154402
154426
154526
154542
154604
154551
154382
154400
154439
154449
154451
154477
154544
154588
154512
154543
154586
154547
154497
154475
154452
154559
154591
154521
154519
154431
154474
154551
154521
154449
154476
154584
154644
154556
154350
154292
154287
154263
154257
154394
154337
154270
154308
154406
154640
154480
154367
154386
154340
154394
154368
154255
154256
154312
154403
154370
154298
154268
154325
154316
154182
154274
154268
154332
154289
154178
154230
154314
154391
154349
154357
154344
154225
154139
154246
154400
154467
154349
154282
154352
154312
154279
154294
154353
154487
154384
154415
154395
154428
154364
154254
154188
154094
154136
154103
153958
153924
153754
153767
153825
153788
153797
153877
153979
153883
153837
153957
154040
154018
153991
154059
154177
154166
154263
154162
154046
154118
154064
153991
154117
154148
154073
153968
153902
153875
153937
153967
154002
153971
153924
153979
153950
153889
153888
153846
153845
153980
154008
153981
153933
153809
153798
153867
153868
153909
153781
153811
153757
153715
153751
153854
153923
153884
153870
153909
153831
153888
153804
153730
153777
153710
153655
153684
153741
153711
153684
153805
153777
153608
153575
153729
153723
153721
153666
153627
153756
153656
153678
153640
153700
153678
153641
153621
153639
153620
153626
153630
153628
153625
153610
153634
153716
153682
153674
153713
153671
153661
153570
153599
153481
153441
153552
153568
153768
153822
153713
153698
153667
153617
153681
153674
153727
153624
153616
153615
153634
153616
153665
153717
153693
153606
153669
153722
153759
153633
153574
153671
153602
153604
153582
153554
153432
153509
153647
153783
153806
153689
153602
153620
153687
153602
153659
153842
153834
153785
153655
153701
153692
153638
153634
153499
153548
153587
153812
153935
153785
153741
153684
153583
153548
153604
153619
153639
153660
153698
153692
153623
153591
153597
153602
153570
153614
153675
153628
153623
153523
153601
153657
153693
153632
153662
153589
153557
153604
153687
153614
153570
153497
153548
153614
153581
153606
153625
153674
153704
153588
153537
153475
153542
153663
153630
153727
153594
153615
153639
153596
153624
153634
153577
153531
153530
153579
153552
153686
153718
153667
153608
153591
153640
153641
153631
153602
153526
153507
153644
153609
153631
153650
153651
153702
153694
153651
153634
153607
153589
153587
153747
153788
153663
153618
153589
153645
153625
153630
153554
153578
153598
153732
153677
153611
153591
153550
153578
153678
153674
153646
153580
153569
153545
153562
153546
153546
153626
153688
153603
153475
153567
153666
153568
153533
153523
153637
153520
153484
153483
153494
153601
153634
153593
153766
153563
153576
153587
153563
153548
153580
153578
153473
153434
153469
153566
153614
153624
153587
153485
153476
153589
153640
153553
153471
153474
153542
153643
153651
153622
153475
153573
153567
153545
153575
153593
153566
153565
153602
153619
153602
153591
153578
153623
153647
153543
153694
153645
153477
153482
153526
153707
153643
153587
153571
153523
153534
153516
153581
153536
153511
153708
153629
153420
153491
153452
153595
153665
153621
153536
153482
153476
153504
153502
153433
153417
153472
153615
153644
153632
153530
153588
153609
153536
153442
153387
153465
153581
153572
153654
153649
153664
153638
153608
153406
153432
153511
153445
153403
153463
153527
153656
153659
153650
153614
153577
153590
153569
153617
153520
153395
153509
153552
153638
153592
153525
153491
153499
153550
153504
153467
153484
153530
153580
153575
153594
153557
153595
153570
153477
153442
153632
153710
153701
153566
153552
153552
153480
153512
153554
153531
153519
153610
153615
153571
153478
153483
153531
153548
153544
153501
153541
153568
153542
153575
153722
153685
153686
153744
153738
153553
153452
153520
153556
153534
153478
153667
153668
153468
153494
153519
153568
153506
153509
153574
153584
153577
153521
153463
153440
153454
153475
153488
153652
153638
153504
153455
153428
153305
153339
153575
153719
153558
153566
153587
153506
153476
153535
153495
153448
153481
153596
153677
153510
153386
153421
153358
153401
153468
153484
153319
153378
153422
153459
153555
153527
153527
153501
153574
153549
153581
153698
153605
153535
153584
153628
153687
153512
153591
153610
153508
153374
153338
153269
153263
153139
153085
153072
153046
153055
153002
153051
153096
153127
153198
153137
153175
153286
153344
153339
153257
153320
153385
153216
153156
153339
153523
153360
153269
153300
153257
153237
153151
153160
153174
153345
153406
153363
153396
153392
153278
153200
153300
153274
153238
153258
153388
153294
153270
153357
153276
153269
153228
153224
153199
153101
153152
153293
153362
153274
153092
153239
153261
153248
153196
153222
153245
153329
153201
153259
153248
153179
153195
153350
153267
153159
153100
153142
153131
153260
153297
153247
153189
153222
153136
153215
153297
153194
153192
153224
153068
153042
153021
153247
153307
153174
153170
153244
153264
153269
153162
153123
153055
153063
153055
153042
153028
153090
153104
153249
153128
153102
153135
153167
153145
153065
153050
153108
153086
153040
153068
153031
153035
153043
153045
153058
153148
153219
153272
153234
153152
153198
153165
153066
153048
153053
153200
153370
153342
153139
153113
153100
153102
153096
153057
153146
153224
153094
153055
153062
152988
153009
153012
153087
153131
153159
153121
153057
153011
152985
153029
153094
153193
153206
153182
153076
153052
153113
153101
153098
153073
153028
153102
153150
153153
153146
153130
153105
152990
152995
152976
153039
153117
153176
153185
153221
153150
153047
153016
153073
153047
153037
153061
153015
153023
152996
153048
153041
153051
153090
153006
153010
153063
153155
153244
153078
153120
153151
153107
153150
153151
153024
152925
152976
152980
152954
152968
153109
153168
153087
153047
153024
153042
152966
152926
152948
152997
153060
153038
152911
152916
153006
153099
153086
153093
153054
153104
153053
153020
152973
153045
153159
153032
152964
153055
153100
153096
152976
153008
152947
152907
152931
152917
152923
152966
153061
153081
153148
153083
152962
152922
152977
152785
152788
152875
152870
152855
152899
152973
153065
153070
153002
152968
152883
152911
152910
152860
152919
152921
152965
152926
152935
152898
152850
152879
152918
152887
152955
153010
152918
152857
152885
152893
152761
152798
152863
152944
153023
153024
152936
152883
152839
152657
152585
152808
153030
153085
152928
152828
152841
152812
152925
152944
152932
153007
153011
153068
153057
152950
152877
152917
152941
152971
153008
153012
152974
152940
152898
152916
152886
152839
152981
153029
153095
153021
152864
152827
152860
152891
152932
152991
153051
153059
153030
152953
152804
152927
153005
153104
153068
152951
152992
152973
153001
152880
152777
152775
152799
152907
153074
153002
153087
153052
153068
153010
152928
152963
152962
152886
152991
152873
152773
152915
153039
153023
152947
152939
152978
152914
152868
152784
152802
152908
152945
153015
153001
152927
152855
152903
153019
152837
152870
152880
152870
152857
152840
152826
152903
152937
152962
152796
152790
152824
152752
152793
152813
152829
152770
152814
152694
152625
152665
152715
152677
152828
152819
152806
152687
152684
152716
152667
152622
152699
152656
152684
152710
152687
152726
152719
152643
152597
152753
152734
152626
152559
152527
152583
152608
152716
152561
152499
152528
152505
152513
152442
152569
152724
152628
152585
152655
152582
152510
152464
152501
152537
152517
152549
152496
152413
152417
152453
152661
152580
152516
152475
152477
152592
152593
152546
152532
152454
152403
152465
152549
152523
152495
152428
152515
152546
152475
152452
152537
152519
152582
152527
152392
152396
152400
152445
152611
152602
152570
152545
152531
152477
152449
152453
152493
152514
152419
152545
152612
152503
152554
152657
152561
152626
152679
152746
152700
152692
152752
152735
152755
152656
152559
152510
152454
152401
152451
152317
152297
152275
152174
152184
152096
152146
152194
152355
152343
152357
152309
152247
152184
152317
152391
152452
152538
152576
152514
152523
152513
152411
152377
152440
152571
152588
152521
152493
152453
152393
152540
152523
152503
152498
152425
152392
152497
152470
152458
152421
152511
152466
152500
152491
152417
152405
152389
152418
152501
152514
152531
152577
152530
152461
152287
152370
152456
152429
152409
152377
152443
152478
152551
152550
152468
152474
152497
152532
152486
152435
152441
152349
152351
152521
152400
152338
152299
152327
152219
152371
152618
152550
152473
152327
152255
152384
152378
152410
152399
152360
152370
152338
152298
152373
152430
152519
152494
152430
152395
152315
152356
152460
152566
152593
152494
152497
152435
152466
152515
152387
152456
152427
152408
152473
152463
152580
152527
152412
152523
152529
152439
152407
152455
152409
152275
152343
152415
152513
152561
152470
152437
152398
152297
152308
152435
152705
152868
152659
152605
152565
152564
152548
152472
152530
152574
152567
152586
152696
152690
152612
152617
152617
152616
152604
152527
152635
152628
152577
152542
152511
152475
152496
152496
152676
152672
152496
152464
152505
152655
152603
152476
152428
152402
152497
152478
152509
152537
152548
152502
152419
152415
152416
152310
152235
152280
152381
152448
152560
152610
152486
152486
152583
152574
152587
152429
152363
152387
152412
152410
152376
152357
152446
152390
152489
152486
152487
152411
152413
152428
152503
152489
152452
152424
152585
152545
152503
152481
152450
152422
152420
152499
152516
152535
152400
152402
152437
152527
152514
152563
152514
152518
152489
152422
152462
152452
152351
152375
152515
152484
152515
152558
152546
152550
152494
152406
152357
152347
152313
152241
152242
152263
152275
152374
152540
152379
152404
152276
152226
152301
152259
152370
152384
152250
152213
152199
152264
152252
152296
152332
152215
152219
152259
152289
152253
152152
152218
152237
152328
152379
152211
152237
152277
152322
152201
152183
152205
152231
152180
152184
152223
152204
152217
152294
152342
152200
152111
152087
152181
152258
152258
152258
152301
152287
152279
152114
152247
152241
152171
152087
151986
151930
151961
152173
152272
152192
152217
152195
152270
152230
152133
152060
152027
152107
152168
151970
152075
152252
152255
152277
152293
152296
152123
152130
152082
152025
152043
152078
152134
152160
152132
152138
152134
152149
152102
152042
151999
152081
152110
152069
152025
151995
151915
151883
151999
151991
151944
151973
152000
151998
151999
151984
151906
151949
151985
151975
152048
152023
152035
152047
151954
151928
151917
151908
151958
152016
152131
152044
152016
152007
151936
151899
151948
151979
151922
151859
151946
151883
151825
151983
151890
151810
151867
151911
151927
151955
151962
151924
151875
151844
151870
152020
152010
151936
151878
151867
151949
151984
151943
152023
151975
151872
151985
151944
151881
151888
151980
151930
151891
151975
151977
151949
151899
151859
151915
151798
151872
151978
151967
151986
151776
151843
151925
151800
151746
151667
151838
151950
151964
151829
151683
151811
151941
151851
151846
151675
151671
151731
151845
152038
151926
151850
151853
151802
151765
151835
151747
151658
151766
151733
151577
151621
151663
151777
151892
151884
151864
151911
151845
151915
151838
151908
151891
151842
151849
151875
151909
151727
151834
151867
151912
151985
151898
151735
151618
151528
151597
151505
151342
151327
151329
151372
151381
151310
151421
151431
151476
151410
151506
151634
151583
151567
151536
151554
151615
151723
151676
151769
151910
151892
151798
151846
151739
151745
151759
151765
151784
151641
151623
151653
151713
151846
151797
151736
151761
151707
151672
151739
151821
151842
151771
151817
151829
151900
151790
151734
151764
151671
151658
151688
151628
151728
151794
151792
151827
151770
151781
151837
151808
151885
151802
151812
151949
151909
151806
151740
151746
151652
151669
151681
151698
151748
151847
151789
151737
151677
151754
151725
151665
151654
151558
151580
151644
151684
151664
151734
151698
151646
151614
151561
151579
151572
151631
151714
151754
151757
151705
151660
151567
151615
151570
151582
151567
151724
151784
151627
151619
151622
151614
151628
151679
151607
151553
151495
151531
151455
151535
151559
151490
151533
151558
151567
151647
151737
151609
151522
151610
151559
151446
151416
151402
151454
151423
151621
151849
151790
151623
151466
151564
151603
151395
151467
151613
151585
151465
151455
151516
151690
151710
151708
151739
151591
151546
151520
151499
151534
151575
151606
151504
151438
151312
151458
151471
151401
151448
151439
151501
151510
151482
151371
151297
151298
151428
151463
151504
151310
151243
151319
151277
151249
151203
151293
151313
151313
151481
151392
151299
151308
151234
151205
151225
151238
151271
151290
151248
151231
151205
151241
151198
151246
151189
151108
151096
151116
151228
151269
151249
151179
151157
151098
151013
151074
151109
151120
151095
151074
151110
151001
150956
151094
151126
151147
151134
151034
151143
151199
151104
151011
150940
150897
150998
151080
151198
151102
151064
151039
151126
151043
150949
150965
150952
150972
151112
151161
151043
150992
150898
150927
150918
151150
151086
151049
151011
151078
151017
150981
151009
150994
150963
150947
151001
151015
150905
150879
150949
151099
151142
150974
150962
150931
150913
151033
151013
150958
150954
150910
150959
150952
150906
150879
151005
151059
151033
151096
151087
150996
150866
150958
151097
151154
151067
151102
150990
150924
150927
150978
151062
151115
151035
151046
151069
150985
151083
151084
151040
151028
150902
151104
150986
150938
150935
151093
151120
151214
151127
151077
151089
151093
151081
151010
150936
151026
151100
151093
151253
151131
151107
151097
151129
151080
151176
151257
151205
151209
151062
151022
151128
151186
151164
151128
151027
151022
151087
151173
151127
151066
151049
151041
151001
151050
151006
151077
151042
151067
151076
150966
151013
151018
151056
151094
151029
151023
150916
150900
151001
151029
151013
150948
151006
151019
150880
150772
150766
150853
150910
151042
151052
151024
151055
151010
150814
150794
150836
150816
150871
150971
151039
151001
150890
150928
150928
150874
150862
150839
150874
150876
150921
150897
150850
150883
150873
150965
150956
150942
150860
150854
150945
150926
150900
150907
150904
150974
151137
151055
150985
150958
150958
150947
150943
150906
150833
150924
150855
150810
150882
150887
150965
150999
150984
151017
150990
151077
151072
150943
150928
150862
150921
150908
151013
151073
151061
151051
151001
151051
151049
151047
151067
151011
150903
150986
150952
150829
150906
150999
151061
150980
150988
150982
150934
150916
150849
150911
150957
151039
151122
151014
150962
151035
151017
150913
150896
150913
151033
151127
151006
150923
150949
150996
150996
150973
150977
151042
151032
150990
151032
150979
150967
150936
151005
150997
151029
151089
151075
151099
151082
151057
151112
151139
151250
151316
151322
151316
151252
151225
151132
151089
151118
151115
151036
151006
150988
150878
150825
150872
150829
150793
150804
150688
150625
150639
150675
150819
150850
150922
150942
150883
150946
150950
151018
151104
151059
151179
151157
151102
151081
150979
151006
151071
150974
150979
151020
151105
151014
151054
151125
151138
151152
151060
151086
151044
150992
150980
151146
151134
151100
151073
151061
151065
151091
151267
151100
151153
151199
151174
151160
151151
151201
151193
151112
151139
150995
151003
151142
151162
151126
151081
151084
151132
151212
151075
151013
151094
151038
151136
151178
151169
151372
151466
151355
151346
151171
151188
151204
151235
151334
151293
151273
151278
151239
151263
151328
151342
151302
151293
151365
151226
151268
151357
151283
151247
151197
151393
151429
151422
151374
151386
151412
151351
151331
151301
151296
151375
151436
151503
151491
151425
151367
151336
151413
151428
151452
151491
151425
151499
151599
151459
151480
151439
151461
151502
151615
151608
151594
151599
151555
151523
151495
151491
151484
151391
151431
151654
151653
151568
151555
151585
151611
151519
151588
151640
151525
151592
151646
151658
151586
151533
151509
151524
151673
151713
151687
151674
151691
151684
151536
151470
151438
151490
151569
151607
151613
151477
151485
151527
151641
151540
151505
151469
151551
151637
151592
151602
151578
151579
151496
151482
151551
151524
151496
151582
151627
151653
151645
151610
151592
151597
151612
151589
151672
151716
151600
151661
151583
151518
151481
151555
151633
151536
151442
151477
151404
151424
151548
151672
151724
151640
151619
151667
151616
151586
151492
151525
151374
151435
151484
151445
151478
151594
151652
151595
151559
151582
151504
151462
151495
151488
151546
151529
151546
151571
151507
151443
151530
151587
151562
151441
151388
151388
151403
151457
151402
151437
151392
151289
151302
151333
151460
151513
151542
151508
151436
151387
151492
151475
151472
151406
151470
151363
151477
151512
151439
151487
151406
151382
151364
151361
151409
151517
151681
151552
151440
151394
151422
151435
151534
151496
151511
151514
151413
151413
151510
151561
151467
151519
151588
151639
151559
151526
151526
151577
151532
151579
151447
151452
151504
151418
151631
151724
151646
151584
151557
151578
151599
151627
151586
151537
151583
151525
151627
151627
151494
151538
151504
151578
151616
151612
151610
151583
151572
151569
151588
151640
151732
151687
151677
151611
151673
151573
151567
151485
151569
151643
151615
151707
151765
151695
151673
151590
151651
151698
151640
151636
151595
151576
151579
151605
151726
151836
151707
151649
151592
151668
151671
151621
151762
151714
151749
151663
151593
151644
151589
151627
151643
151658
151711
151648
151618
151619
151601
151658
151796
151762
151621
151566
151619
151680
151730
151810
151749
151605
151605
151732
151696
151742
151801
151767
151799
151736
151716
151760
151679
151606
151534
151588
151748
151782
151734
151706
151714
151785
151619
151737
151732
151705
151805
151791
151723
151753
151731
151817
151749
151757
151785
151782
151742
151772
151658
151697
151663
151636
151768
151705
151689
151663
151731
151758
151838
151823
151760
151770
151663
151618
151641
151643
151795
151823
151893
151851
151758
151694
151548
151550
151653
151672
151670
151673
151746
151684
151658
151578
151668
151812
151768
151750
151708
151658
151669
151604
151568
151588
151546
151579
151600
151621
151648
151606
151731
151682
151577
151448
151468
151622
151740
151807
151694
151610
151648
151591
151500
151405
151531
151672
151596
151580
151483
151479
151588
151619
151562
151589
151550
151646
151643
151640
151609
151535
151526
151531
151524
151528
151608
151688
151715
151668
151661
151706
151720
151659
151692
151660
151688
151689
151714
151791
151638
151471
151244
151109
151224
151395
151512
151273
151286
151278
151113
151058
151183
151236
151296
151250
151282
151363
151462
151493
151408
151400
151477
151462
151405
151415
151438
151398
151397
151403
151346
151252
151324
151399
151322
151367
151244
151342
151362
151372
151435
151310
151347
151314
151348
151348
151220
151228
151257
151438
151427
151252
151331
151303
151347
151365
151257
151245
151214
151110
151161
151157
151214
151291
151199
151132
151220
151208
151183
151141
151083
151073
151159
151202
151262
151163
151132
151192
151158
151189
151265
151195
151215
151161
151055
150987
150934
151151
151227
151224
151268
151094
151142
151193
151174
151153
151122
151121
151081
151090
151112
151094
151092
151046
150953
150958
150968
151157
151225
151029
150993
151016
150981
151157
151136
150933
150917
151056
151059
150999
151036
150980
150958
151059
151117
151109
150975
151009
151143
151180
151085
151001
150901
150846
150967
150984
151018
151109
151113
151029
150984
150903
150862
150875
151003
151033
151102
151033
151148
151081
151038
151030
151043
150990
150913
150859
150868
150898
150986
151028
151062
151036
151079
151008
151007
151068
151181
151032
150981
150957
150888
150867
151023
151058
151042
150972
150941
151008
151000
150961
150982
150896
150866
150904
151014
151006
151047
151084
151046
151042
151047
150948
151025
151006
150974
150949
151010
150976
150906
150838
150866
151035
151126
151019
150894
150824
150803
150869
150893
150833
150804
150849
150906
150823
150747
150721
150744
150890
150959
150969
150908
150807
150762
150686
150733
150794
150804
150816
150737
150733
150697
150584
150714
150787
150811
150837
150780
150747
150776
150902
150902
150747
150804
150683
150680
150603
150541
150687
150772
150656
150656
150509
150573
150600
150701
150770
150643
150594
150654
150621
150595
150545
150580
150601
150655
150797
150761
150735
150751
150638
150628
150471
150456
150437
150443
150490
150428
150388
150432
150597
150812
150709
150629
150441
150574
150565
150510
150473
150484
150492
150490
150431
150423
150317
150315
150427
150439
150522
150564
150643
150641
150573
150467
150515
150514
150469
150409
150436
150384
150334
150251
150277
150455
150496
150479
150458
150483
150553
150493
150618
150530
150378
150310
150428
150386
150260
150243
150357
150476
150544
150494
150458
150473
150417
150383
150422
150449
150489
150439
150410
150403
150360
150417
150305
150324
150355
150418
150444
150396
150307
150212
150244
150440
150449
150330
150312
150291
150284
150326
150273
150284
150295
150502
150360
150210
150192
150180
150192
150270
150350
150358
150229
150192
150222
150230
150366
150342
150332
150283
150333
150289
150250
150303
150215
150062
150063
150086
150285
150440
150391
150270
150194
150157
150201
150254
150213
150227
150221
150206
150217
150192
150261
150321
150303
150269
150249
150207
150231
150275
150325
150341
150395
150380
150372
150175
150154
150184
150306
150270
150273
150239
150202
150199
150247
150270
150372
150294
150247
150282
150323
150344
150298
150258
150249
150259
150265
150231
150276
150342
150376
150346
150279
150305
150262
150193
150203
150085
150122
150285
150302
150216
150132
150124
150212
150255
150247
150257
150209
150184
150176
150168
150233
150173
150146
150201
150337
150364
150227
150084
150118
150094
150250
150360
150251
150287
150284
150167
150231
150279
150153
150173
150262
150344
150362
150380
150354
150273
150347
150308
150342
150384
150346
150400
150468
150392
150311
150275
150283
150186
150189
150076
149819
149845
149941
149964
149906
149837
149853
149918
149881
149900
149869
149900
149966
150047
150065
150078
150144
150149
150177
150299
150257
150192
150215
150165
150166
150123
150240
150239
150125
150002
150075
150247
150303
150217
150182
150153
150172
150159
150078
150091
150170
150159
150124
150203
150218
150104
150106
150131
150135
150128
150106
150100
150149
150086
150029
150177
150285
150360
150315
150140
150025
150095
150219
150157
150210
150205
150177
150203
150178
150227
150192
150225
150302
150216
150145
150068
150078
150039
150101
150155
150163
150059
150032
150169
150150
150184
150250
150263
150264
150195
150174
150140
150067
150062
149984
150088
150184
150215
150141
150108
150087
150145
150157
150141
150182
150086
150119
150164
150141
150066
150009
150087
150191
150169
150133
150119
150087
150078
150070
150119
149980
150059
150061
150087
150109
150040
149992
150086
150128
150122
150042
150032
150108
150104
150123
150092
150108
150163
150135
150049
150030
150077
150113
150192
150241
150145
150085
150059
150009
150078
150072
150107
150121
150135
150011
149941
150019
150070
150118
150191
150190
150179
150133
150025
149976
150007
150068
150071
150025
150044
150024
150123
150242
150172
150122
150163
150160
150197
150087
150037
149932
150018
150096
150070
150073
149971
149988
149953
149973
149985
150021
150066
150184
150213
150139
150025
149945
149982
149960
150000
150033
150089
150088
150127
149965
149881
150016
150106
150121
150065
150016
150028
150088
150028
150118
150115
150062
150001
149990
150038
150111
150151
150134
150228
150123
150024
150017
149964
150012
150054
150012
150057
149965
150024
150141
150070
150050
150067
150066
150089
150082
150039
149966
149902
149925
149945
149910
149837
149978
150220
150267
150173
150080
150069
150099
150049
149983
149966
149985
150037
150054
150028
150071
150051
149927
149845
149920
150006
150057
150054
150095
150112
150150
150078
150026
149988
149988
149945
149876
149924
149883
149881
149985
149949
150035
150077
150042
149989
150020
149997
149855
149850
149900
150040
150053
149975
150025
149993
150026
149989
149953
149892
149878
149905
149920
149981
150015
150069
150089
150117
149956
149963
149934
149890
149789
149840
150048
150081
150131
150079
149992
149954
149904
149792
149755
149883
150059
150098
150108
150100
149983
149904
149848
149819
149911
150007
150074
150022
149959
149855
149819
149883
149926
150034
149973
149895
149933
150006
149936
149881
149898
149936
149880
149816
149895
149881
149980
149871
149832
149934
149907
149896
149923
149874
149751
149597
149612
149807
149903
149962
150028
149965
149868
149780
149825
149768
149888
149912
149896
149825
149857
149835
149824
149760
149793
149744
149637
149669
149706
149797
149802
149844
149679
149630
149731
149879
149907
149870
149788
149723
149745
149772
149714
149777
149735
149718
149681
149729
149838
149833
149752
149849
149844
149860
149893
149735
149813
149875
149784
149846
149834
149805
149816
149793
149843
149723
149764
149917
149885
149892
149872
149806
149728
149799
149827
149793
149767
149816
149917
149942
149871
149916
149918
149828
149799
149855
149794
149785
149821
149934
149938
150027
149975
149846
149769
149733
149765
149837
149831
149791
149658
149657
149758
150056
150066
149982
149918
149816
149719
149670
149715
149788
149761
149686
149631
149551
149621
149829
149976
149954
149775
149826
149832
149863
149885
149794
149781
149805
149656
149625
149728
149750
149765
149754
149773
149745
149777
149712
149758
149813
149755
149815
149875
150032
149976
149956
149988
149927
149933
149896
149790
149651
149550
149483
149430
149379
149374
149411
149411
149339
149268
149267
149362
149341
149263
149323
149396
149434
149531
149537
149437
149380
149481
149510
149450
149479
149619
149667
149603
149599
149575
149568
149554
149435
149345
149398
149447
149448
149452
149460
149605
149584
149547
149584
149526
149490
149385
149418
149456
149521
149480
149525
149523
149532
149504
149440
149408
149463
149597
149546
149586
149458
149279
149327
149386
149499
149572
149632
149482
149510
149365
149279
149252
149446
149591
149518
149539
149571
149585
149613
149538
149529
149456
149469
149517
149481
149491
149508
149467
149505
149545
149541
149489
149427
149488
149483
149567
149539
149570
149624
149455
149459
149548
149593
149533
149392
149362
149501
149546
149658
149464
149336
149436
149560
149545
149524
149595
149646
149654
149563
149514
149529
149531
149606
149572
149491
149436
149398
149435
149525
149456
149471
149542
149558
149557
149508
149426
149488
149629
149635
149494
149512
149507
149575
149534
149452
149470
149468
149550
149647
149592
149494
149440
149431
149523
149545
149516
149490
149549
149610
149625
149688
149677
149497
149472
149393
149471
149459
149525
149559
149548
149587
149560
149658
149621
149538
149574
149561
149518
149448
149605
149613
149534
149534
149467
149411
149591
149732
149830
149780
149651
149676
149575
149593
149578
149505
149545
149630
149662
149595
149587
149598
149557
149562
149558
149548
149648
149650
149626
149685
149597
149545
149488
149524
149614
149691
149793
149809
149718
149611
149514
149568
149573
149565
149557
149521
149533
149590
149728
149696
149583
149598
149559
149617
149672
149658
149686
149687
149666
149681
149553
149446
149559
149668
149682
149561
149634
149704
149733
149749
149716
149702
149599
149547
149666
149586
149639
149724
149631
149522
149545
149662
149675
149629
149541
149648
149813
149761
149705
149722
149765
149686
149652
149562
149555
149529
149439
149519
149723
149802
149702
149615
149696
149674
149665
149679
149733
149696
149676
149652
149545
149497
149566
149594
149694
149738
149780
149822
149730
149705
149647
149692
149609
149625
149728
149697
149649
149681
149607
149593
149648
149539
149652
149773
149721
149587
149667
149745
149711
149659
149648
149625
149664
149641
149597
149512
149583
149652
149737
149652
149603
149670
149685
149692
149755
149655
149627
149583
149585
149650
149748
149828
149804
149730
149613
149559
149608
149657
149651
149631
149608
149575
149680
149686
149718
149651
149540
149670
149717
149700
149590
149644
149617
149627
149727
149577
149654
149650
149623
149670
149620
149704
149577
149535
149569
149603
149576
149583
149696
149698
149634
149620
149581
149613
149712
149563
149666
149714
149691
149597
149504
149452
149415
149533
149616
149707
149770
149719
149705
149663
149602
149613
149601
149543
149587
149679
149641
149712
149669
149643
149729
149659
149576
149573
149678
149642
149567
149511
149580
149597
149510
149526
149637
149695
149640
149608
149555
149526
149669
149618
149676
149584
149546
149645
149707
149594
149692
149673
149675
149690
149592
149675
149685
149653
149636
149693
149755
149722
149704
149675
149647
149705
149848
149759
149823
149706
149611
149570
149560
149631
149608
149709
149984
149853
149806
149857
149853
149729
149664
149649
149663
149770
149819
149762
149675
149719
149862
149803
149828
149745
149666
149665
149652
149735
149809
149674
149614
149607
149649
149719
149682
149793
149732
149716
149644
149613
149679
149669
149745
149678
149733
149801
149774
149702
149709
149713
149745
149703
149618
149761
149729
149733
149736
149576
149498
149574
149733
149844
149780
149769
149715
149779
149853
149900
149771
149732
149718
149769
149737
149885
149867
149955
149924
149873
149881
149746
149645
149526
149461
149542
149420
149352
149328
149280
149269
149205
149315
149302
149285
149314
149277
149288
149434
149516
149597
149522
149548
149506
149524
149743
149677
149716
149547
149510
149504
149370
149461
149662
149657
149559
149648
149585
149585
149564
149574
149444
149474
149441
149383
149472
149515
149622
149530
149539
149615
149498
149459
149510
149558
149595
149594
149548
149568
149663
149593
149512
149541
149551
149544
149640
149558
149603
149575
149454
149410
149328
149411
149574
149699
149613
149514
149495
149514
149573
149515
149519
149574
149513
149629
149689
149603
149593
149671
149596
149655
149629
149642
149572
149532
149540
149661
149693
149524
149520
149488
149548
149569
149602
149579
149542
149550
149476
149482
149460
149355
149494
149483
149564
149545
149515
149519
149562
149553
149501
149514
149469
149575
149618
149562
149511
149494
149476
149510
149630
149597
149452
149520
149598
149648
149615
149477
149477
149432
149466
149589
149658
149586
149546
149578
149661
149667
149637
149633
149536
149601
149512
149587
149554
149434
149428
149364
149512
149497
149539
149550
149479
149522
149622
149617
149549
149600
149567
149561
149519
149496
149509
149493
149444
149533
149628
149673
149782
149687
149622
149557
149494
149535
149557
149549
149554
149434
149450
149530
149576
149649
149641
149703
149597
149551
149625
149590
149523
149478
149496
149471
149387
149361
149414
149535
149645
149599
149606
149658
149597
149584
149581
149577
149506
149572
149502
149581
149777
149597
149441
149442
149492
149682
149692
149596
149613
149712
149729
149636
149554
149431
149392
149565
149532
149678
149782
149685
149661
149568
149585
149615
149607
149675
149700
149773
149765
149697
149765
149739
149711
149619
149636
149622
149666
149836
149848
149885
149844
149706
149619
149663
149645
149651
149680
149728
149592
149570
149620
149710
149834
149777
149716
149782
149696
149624
149603
149542
149657
149577
149514
149484
149617
149684
149731
149679
149663
149655
149606
149594
149618
149618
149616
149659
149751
149678
149598
149438
149564
149595
149679
149677
149731
149617
149603
149653
149650
149589
149639
149583
149596
149670
149765
149754
149753
149659
149577
149486
149549
149591
149579
149620
149636
149625
149610
149692
149746
149690
149693
149653
149714
149712
149714
149789
149770
149677
149558
149697
149809
149654
149645
149691
149664
149759
149805
149782
149764
149715
149732
149716
149686
149835
149789
149678
149504
149567
149716
149638
149599
149600
149667
149685
149632
149649
149626
149552
149580
149644
149823
149751
149608
149558
149591
149674
149764
149659
149613
149583
149524
149524
149605
149638
149626
149704
149642
149623
149545
149569
149628
149587
149636
149761
149743
149612
149562
149649
149753
149700
149601
149619
149639
149601
149467
149526
149727
149739
149583
149569
149630
149610
149656
149757
149584
149635
149663
149719
149729
149765
149761
149607
149547
149675
149571
149617
149745
149806
149814
149664
149715
149681
149658
149618
149577
149681
149693
149770
149729
149791
149826
149726
149596
149527
149580
149654
149713
149743
149801
149793
149712
149574
149569
149576
149546
149568
149659
149772
149767
149727
149763
149747
149732
149739
149616
149509
149479
149519
149644
149591
149679
149667
149588
149559
149470
149542
149617
149562
149601
149591
149551
149553
149648
149657
149575
149609
149476
149473
149525
149456
149568
149630
149647
149609
149554
149497
149587
149732
149754
149707
149671
149721
149720
149710
149690
149655
149546
149516
149449
149375
149303
149189
149102
149012
149129
149205
149101
149052
149098
149053
149303
149259
149195
149248
149302
149353
149419
149339
149343
149353
149347
149257
149261
149336
149381
149439
149479
149420
149418
149334
149286
149277
149265
149228
149272
149391
149494
149477
149423
149308
149317
149285
149296
149300
149319
149406
149323
149438
149445
149406
149399
149447
149366
149267
149222
149192
149311
149477
149424
149483
149448
149403
149330
149434
149359
149205
149180
149230
149452
149406
149392
149383
149305
149334
149280
149229
149180
149178
149365
149371
149294
149231
149115
149213
149171
149295
149258
149275
149334
149289
149314
149285
149264
149254
149142
149204
149298
149245
149196
149224
149247
149327
149277
149172
149086
149092
149120
149188
149183
149235
149235
149094
149127
149183
149123
149200
149195
149212
149183
149169
149140
149339
149389
149335
149327
149253
149232
149142
149109
149163
149187
149132
149139
149248
149263
149235
149201
149111
149216
149292
149222
149260
149232
149139
149084
149196
149282
149196
149039
148965
148996
149135
149238
149074
148965
149011
149094
149203
149121
149080
149108
149108
149127
149160
148974
148917
149047
148965
148999
149040
149029
149061
149072
148990
148885
148937
149012
149139
149088
148966
148934
148942
148928
148950
148969
148970
148943
148994
149020
149033
149003
148899
148806
148859
148923
148950
148954
148947
148994
148914
148921
148930
148941
148937
148914
148949
149007
149043
149048
149061
148988
148959
149000
149005
148983
149018
149035
149002
149064
149048
149012
148955
148984
149018
148960
148884
148940
148895
148825
148880
148863
148872
148896
148902
148993
149023
148944
148965
148954
148912
148967
148934
148868
148801
148820
148801
148796
148902
148976
148897
148950
149007
148951
148904
148913
148939
148903
148935
148956
148937
148905
148940
148955
148892
148789
148823
148986
149071
149050
148883
148828
148814
148772
148733
148863
148997
148924
148870
148789
148800
148810
148888
148941
148972
148965
148983
148950
148857
148825
148863
148940
148940
148896
148914
148895
148915
148921
148963
148983
148933
148909
148834
148780
148953
148961
149031
149063
148939
148846
148846
148914
148896
148853
148879
148904
148986
149035
148880
148876
148901
148881
148816
148778
148806
148894
149034
149098
149012
148998
148950
148990
149031
149010
148870
148837
148895
148899
148830
148844
148969
149044
149023
149015
149090
149027
148989
148985
148890
148932
149060
149011
148899
148976
148939
148847
149007
149056
149056
148970
148900
148911
148984
148974
149009
149058
149098
149084
149077
149029
149015
148956
149014
149058
149092
149007
149025
149053
148972
148957
148998
149034
149061
149047
149005
148983
148967
148960
148889
148979
149072
149104
148990
148979
149118
149140
149080
149050
149041
149178
149080
149072
149102
149046
149061
149038
149052
148993
148935
148977
148990
149029
148891
148923
148998
148963
149075
149087
148943
149064
149110
149034
148981
149007
149046
148956
148989
149023
149045
149036
149079
148946
148996
149134
149073
149015
149062
149076
149045
149021
148979
149043
149064
149074
148982
148834
148888
149064
149170
149105
149060
148999
149021
148972
148970
148913
148858
148844
148922
148971
148898
149044
149153
149172
149116
149048
149014
148988
148973
149060
149066
148993
149008
148975
148988
149012
148941
148974
149093
149003
148976
149073
149081
149057
149003
148996
149052
149208
149081
149020
149035
149121
149182
149223
149207
149102
149177
149231
149288
149320
149094
148949
148915
148893
148786
148705
148797
148781
148790
148751
148621
148650
148765
148754
148868
148818
148920
148780
148730
148845
148910
148927
148958
148988
149021
149054
149038
148938
148951
148974
148968
149051
149000
149001
149080
149017
148961
149003
149069
149069
149016
149022
149018
149005
148965
148993
149014
148962
148859
148984
149074
149160
149136
149036
149067
149123
149051
148932
148903
148883
148879
149020
149149
149170
148968
148962
149015
148998
148988
149008
148952
148923
148952
149070
149053
148990
148984
148959
149017
149065
149057
149074
149072
149007
148896
148877
148990
148950
148935
148927
148890
148944
149044
149026
148976
148909
148960
149024
148926
148884
148874
148864
148957
148936
148996
148923
149035
149053
149073
148988
148956
148959
148892
148842
148842
148861
148900
148900
148997
148969
148890
148905
148930
148932
148914
148949
148891
148912
148826
148801
148886
149026
148960
148992
148958
148841
148948
148987
148979
148903
148845
148838
148879
148949
148973
148992
148973
148956
148924
148909
148888
148901
148895
148992
148974
148893
148941
148850
148936
148953
148998
149029
149059
148973
148931
148965
148965
148914
148888
148908
148794
148860
148878
148902
149081
149106
149108
149168
149112
149003
148885
148930
148960
149037
149057
149025
148921
149007
149029
148928
148950
148961
149008
148970
148888
148954
149068
149202
149062
149043
148999
149003
149078
149127
149043
148955
149016
149084
148979
149039
149008
149058
149133
149033
149070
149111
149097
149101
149100
149045
149049
149102
149115
149101
149062
149024
149115
149107
148963
148949
148936
149039
149208
149178
149079
149064
149205
149066
149052
149073
149003
149106
149133
149126
149155
149106
149085
148998
149022
149073
148981
149001
149108
149094
148995
149021
149159
149181
149139
149009
149011
149052
149114
149094
148970
148954
148886
148920
149095
149126
149199
149056
148980
148967
149025
149001
148973
149005
149019
149163
149073
149056
148873
148819
148966
149085
149119
149144
149170
149098
148935
148958
149063
149077
149056
148976
148933
148852
148836
148973
149212
149242
149210
149132
149097
149118
149158
149088
149067
148991
148996
148988
149140
149230
149127
149058
149056
149065
149101
149054
149122
149211
149176
149071
149121
149133
149191
149173
149039
149011
148937
149003
149071
149151
149056
149128
149125
149255
149268
149173
149214
149281
149226
149185
149067
149007
149105
149196
149314
149237
149120
149134
149136
149115
149126
149007
148983
149069
149175
149176
149233
149170
149203
149100
149090
149154
149195
149121
149111
149106
149128
149173
149078
149129
149184
149089
149068
149123
149232
149279
149129
149076
149094
149118
149142
149115
149064
149205
149228
149141
149023
149121
149147
149179
149159
149163
149150
149024
148989
149028
149148
149298
149340
149115
148994
148903
148960
149044
149092
149066
149091
149050
149111
149073
149022
149075
149092
149025
148926
148923
148907
149067
149182
149222
149180
149033
149017
149059
149147
149160
149127
149084
149151
149039
149030
148977
149232
149266
149204
149185
149210
149173
149129
149156
149187
149216
149185
149047
149022
149036
149145
149209
149217
149170
149119
149035
148998
149019
149089
149162
149198
149199
149092
148972
148974
149032
149079
149196
149222
149160
149191
149194
149197
149108
149119
149129
149134
149152
149107
149128
149049
149063
149055
148986
148944
148880
149050
149021
149006
149006
149012
149023
149011
149080
149030
149048
149053
149157
149182
149208
149252
149218
149186
149116
149074
148985
149016
148944
148870
148846
148704
148679
148647
148638
148496
148478
148632
148648
148651
148668
148604
148670
148660
148696
148784
148802
148834
148789
148821
148898
148758
148810
148676
148711
148826
148731
148710
148679
148688
148694
148750
148838
148902
148887
148795
148795
148692
148680
148648
148679
148743
148890
148915
148762
148655
148565
148716
148868
148920
148789
148728
148742
148738
148754
148727
148860
148904
148863
148788
148821
148762
148641
148488
148569
148650
148647
148674
148779
148675
148578
148567
148683
148644
148682
148670
148562
148545
148601
148586
148588
148647
148700
148650
148596
148637
148716
148747
148640
148561
148542
148458
148635
148739
148668
148657
148570
148521
148559
148467
148370
148398
148538
148735
148771
148595
148463
148573
148690
148634
148546
148532
148498
148473
148556
148590
148674
148787
148638
148579
148700
148627
148644
148692
148615
148645
148577
148694
148684
148679
148630
148707
148825
148663
148695
148748
148607
148595
148670
148711
148682
148665
148663
148688
148766
148741
148669
148681
148644
148766
148679
148548
148587
148731
148665
148762
148767
148766
148797
148763
148741
148734
148821
148840
148752
148741
148697
148713
148770
148762
148722
148739
148717
148631
148667
148726
148632
148818
148809
148814
148887
148759
148675
148565
148622
148825
148934
148966
148873
148799
148734
148729
148722
148736
148723
148704
148627
148714
148709
148776
148778
148694
148629
148736
148945
148880
148753
148721
148717
148771
148780
148768
148777
148865
148828
148846
148804
148756
148729
148816
148881
149073
149177
149075
148919
148858
148732
148755
148857
148875
148847
148930
148957
148950
148949
148925
148847
148875
148977
149035
149007
148965
148954
149008
148993
148921
148931
148935
148956
148940
149022
149102
148967
148917
148902
149039
148940
148952
148924
148875
148972
148940
148973
148963
148909
149012
148865
148893
148938
148880
148880
148861
148926
148886
148834
148781
148751
148880
148859
148895
148910
148911
149031
148892
148852
148915
148852
148836
148891
148831
148831
148829
148769
148853
148884
148846
148903
149031
148950
148772
148726
148717
148915
148979
148875
148866
148817
148790
148778
148834
148857
148923
148916
148984
148965
148937
148932
148896
148933
148933
148948
148900
148870
148833
148802
148933
148926
148891
148940
149009
149097
149049
149043
148982
149037
149018
149014
149037
148972
148907
148940
148806
148853
149035
149094
149088
148985
149005
148999
148976
148992
149084
149127
149009
149005
148967
148906
149027
149021
148982
149015
148998
148972
148947
148966
149099
149166
149166
149113
149094
149024
149009
148999
148917
148895
149039
148932
148983
149060
149043
149009
148995
149036
149010
149097
149051
148961
148922
148844
148857
149032
149014
149118
149221
149268
149160
149100
149163
149120
149054
148996
148941
149025
149137
149129
149089
149057
149161
149186
149119
149104
149146
149154
149138
149136
149197
149115
149027
149009
148998
149018
149061
149100
149119
149079
148999
148918
148949
149024
149075
149037
149007
148982
149009
149034
149162
149179
149124
149143
149058
148982
148944
148979
148954
148986
149076
149060
149094
149039
149037
148913
148861
148891
148908
148980
149093
149022
149026
149032
149026
148986
148902
148907
148879
148871
148884
148897
149064
149013
148948
148903
148834
148851
148813
148944
149089
148988
148978
148968
148905
148865
148860
148878
148896
148975
148978
149031
149017
149049
149045
149018
148989
149022
149078
149029
148971
148989
148940
148906
148857
148900
148851
148740
148649
148637
148536
148507
148467
148379
148273
148281
148362
148435
148476
148386
148277
148450
148642
148707
148616
148554
148543
148602
148511
148449
148486
148367
148442
148582
148572
148504
148404
148479
148438
148391
148236
148251
148368
148354
148363
148346
148424
148443
148368
148352
148377
148336
148313
148245
148228
148194
148145
148194
148283
148272
148212
148076
148137
148407
148388
148272
148353
148304
148263
148189
148135
148201
148277
148219
148171
148175
148124
148277
148387
148227
148264
148239
148172
148261
148334
148309
148282
148222
148247
148350
148287
148120
148174
148143
148167
148276
148277
148337
148417
148423
148408
148295
148333
148301
148285
148319
148331
148395
148363
148421
148379
148290
148326
148305
148400
148464
148375
148323
148458
148400
148484
148458
148426
148456
148488
148436
148461
148557
148499
148504
148433
148477
148533
148601
148587
148586
148534
148504
148466
148441
148540
148441
148470
148570
148685
148546
148516
148515
148507
148494
148544
148589
148536
148565
148507
148482
148479
148507
148590
148605
148627
148570
148581
148604
148599
148622
148627
148615
148533
148513
148493
148524
148559
148626
148689
148546
148492
148499
148554
148585
148459
148353
148567
148614
148610
148608
148629
148644
148517
148458
148464
148445
148390
148371
148486
148512
148537
148583
148614
148562
148553
148486
148460
148386
148502
148654
148681
148557
148607
148600
148547
148508
148603
148624
148635
148739
148628
148554
148612
148707
148737
148594
148510
148702
148720
148648
148525
148626
148710
148657
148612
148593
148657
148711
148715
148725
148668
148660
148613
148597
148583
148675
148660
148632
148569
148641
148635
148576
148493
148689
148771
148645
148568
148512
148576
148666
148718
148636
148532
148509
148462
148434
148454
148466
148490
148490
148545
148511
148487
148477
148430
148335
148368
148364
148421
148441
148458
148435
148484
148453
148398
148368
148305
148292
148352
148464
148392
148351
148377
148455
148480
148479
148484
148470
148415
148349
148344
148456
148593
148597
148560
148395
148442
148449
148357
148403
148408
148457
148466
148376
148421
148460
148426
148428
148486
148477
148446
148480
148432
148400
148445
148395
148484
148470
148523
148572
148563
148555
148494
148451
148579
148507
148463
148425
148329
148457
148410
148524
148581
148590
148567
148519
148487
148519
148546
148550
148402
148395
148441
148460
148364
148303
148414
148582
148661
148594
148585
148576
148552
148550
148395
148444
148445
148372
148345
148377
148408
148528
148560
148543
148499
148444
148427
148429
148453
148460
148436
148466
148425
148307
148384
148470
148450
148497
148422
148404
148396
148417
148336
148445
148525
148464
148498
148493
148467
148379
148369
148507
148566
148541
148437
148385
148469
148641
148626
148497
148453
148469
148426
148477
148397
148359
148381
148370
148399
148495
148483
148454
148534
148377
148361
148398
148479
148483
148529
148557
148483
148481
148458
148403
148469
148513
148496
148422
148441
148415
148430
148436
148460
148467
148456
148401
148485
148538
148575
148608
148453
148504
148445
148505
148595
148418
148467
148577
148608
148574
148445
148460
148471
148562
148747
148663
148578
148515
148605
148564
148494
148525
148570
148553
148551
148538
148489
148461
148503
148519
148576
148612
148630
148663
148660
148421
148407
148544
148659
148886
148787
148718
148772
148725
148676
148533
148524
148573
148688
148684
148630
148671
148569
148577
148591
148493
148544
148533
148559
148638
148704
148622
148515
148414
148313
148310
148614
148727
148840
148797
148626
148523
148507
148367
148340
148281
148290
148372
148255
148174
148041
147981
147945
147917
147897
147888
147824
147906
147915
148036
147992
148035
148071
148039
148084
148095
148113
148141
148119
148189
148331
148282
148286
148211
148188
148264
148256
148215
148236
148290
148340
148341
148284
148358
148322
148258
148376
148347
148317
148227
148203
148365
148451
148445
148371
148329
148400
148319
148353
148406
148347
148349
148348
148333
148340
148330
148385
148321
148332
148478
148401
148301
148336
148303
148319
148299
148287
148258
148352
148426
148374
148358
148279
148295
148369
148338
148318
148397
148545
148486
148370
148252
148283
148471
148488
148387
148404
148452
148480
148560
148494
148487
148481
148458
148557
148427
148479
148460
148390
148378
148487
148430
148403
148433
148484
148510
148569
148542
148395
148300
148350
148536
148532
148563
148505
148516
148556
148511
148450
148445
148517
148507
148454
148475
148564
148635
148739
148764
148720
148635
148493
148539
148668
148579
148531
148398
148544
148711
148805
148741
148614
148593
148616
148722
148754
148757
148670
148653
148711
148690
148535
148612
148730
148809
148809
148760
148763
148704
148642
148628
148632
148677
148663
148648
148611
148558
148557
148702
148707
148683
148744
148855
148905
148770
148702
148600
148708
148712
148711
148574
148564
148487
148564
148770
148993
148802
148797
148820
148788
148714
148638
148748
148811
148812
148715
148512
148611
148624
148722
148730
148840
148762
148726
148704
148645
148702
148765
148724
148853
148915
148859
148720
148712
148838
148842
148820
148877
148850
148873
148842
148875
148909
148870
148881
148818
148801
148858
148784
148825
148863
148852
148875
148904
148897
148941
148925
148883
148834
148759
148731
148807
148875
148786
148812
148868
148918
148976
148851
148838
148847
148712
148814
148921
148889
148909
148903
148870
148888
148866
148868
148842
148919
148948
148979
148895
148831
148741
148721
148757
148714
148895
148900
148986
148908
148887
148812
148828
148901
148897
148875
148861
148959
148973
148960
148969
148907
149048
149044
149026
148950
148913
148869
148903
148915
148918
148929
148973
148903
148869
148895
148913
148944
148913
149024
149085
149000
149022
149016
149020
148932
148941
149062
149066
149054
149092
149009
148991
148963
148987
149045
149039
149139
149115
149130
149179
149106
149033
149101
149065
149094
149057
149086
149137
149101
149095
149115
149159
149069
149065
149073
149052
149040
149014
149059
149172
149121
149141
149112
149091
149092
149115
149193
149099
149092
149237
149141
149106
149033
149083
149072
149092
149185
149211
149087
149085
149048
149081
149153
149214
149168
148984
149002
148997
149124
149063
149200
149168
149112
149150
149187
149095
149094
149133
149117
149105
149157
149181
149106
149131
149143
149248
149286
149267
149113
149135
149172
149187
149232
149134
149049
148931
149070
149134
149198
149129
149013
149147
149124
149149
149149
149097
149107
149114
149140
149063
148911
148957
149086
149094
149053
149065
149101
149009
149046
149065
148995
149031
149004
148993
149016
148965
149070
149065
149043
149107
149074
149008
149005
149055
149183
149049
149009
148973
149007
149041
149031
149155
149097
149147
149176
149139
149064
149035
149074
149048
148995
149044
149086
149129
149170
149110
149111
149087
149161
149183
149140
149052
149037
149127
149190
149001
149131
149178
149182
149170
149166
149146
149117
149152
149150
149076
149027
149050
149125
149255
149153
149155
149152
149126
149177
149127
149220
149214
149146
149087
149127
149318
149359
149215
149166
149181
149085
149033
149028
149200
149242
149265
149168
149091
149264
149247
149164
149152
149205
149181
149136
149196
149181
149239
149205
149063
149063
149135
149086
149089
149058
149155
149200
149247
149383
149276
149232
149286
149230
149197
149219
149241
149246
149263
149209
149146
149158
149075
149056
149025
148979
148834
148793
148785
148745
148594
148580
148537
148659
148680
148703
148685
148750
148744
148698
148710
148913
148957
149125
149067
148977
148924
148847
148834
148864
148872
148926
149081
149049
148901
148861
148808
148742
148765
148858
148929
148964
148966
148981
149150
149042
148876
148820
148917
149012
148871
148721
148689
148806
148987
149075
149084
148985
148964
149059
148988
148965
148974
148879
148820
148825
148962
149010
148979
149016
148845
148812
148861
148932
148920
149078
149049
148918
148925
148854
148863
148971
148961
148882
148912
148918
148986
148939
148852
149023
148927
148922
148891
148790
148762
148847
148918
148951
149054
149018
148936
148925
148959
148829
148731
148794
148855
148932
148976
148945
148796
148886
148973
149010
148899
148732
148873
148836
148814
148811
148883
148941
148949
148839
148792
148676
148692
148741
148746
148690
148758
148935
149079
148964
148831
148750
148771
148883
148853
148810
148821
148877
148914
148793
148775
148837
148922
148816
148762
148846
148797
148770
148759
148773
148834
148698
148641
148826
149039
148961
148846
148739
148778
148751
148655
148574
148622
148763
148795
148725
148731
148776
148708
148668
148756
148694
148669
148606
148627
148626
148604
148758
148886
148746
148675
148618
148614
148765
148718
148748
148661
148587
148695
148723
148665
148606
148659
148600
148569
148608
148590
148676
148689
148602
148609
148559
148528
148552
148582
148608
148539
148441
148426
148441
148516
148569
148668
148566
148477
148505
148498
148477
148586
148603
148576
148454
148440
148526
148559
148537
148445
148473
148494
148418
148438
148373
148421
148541
148505
148676
148598
148516
148521
148486
148459
148465
148509
148479
148358
148388
148521
148477
148412
148496
148630
148507
148568
148487
148418
148529
148447
148492
148566
148586
148490
148380
148367
148372
148342
148369
148322
148341
148410
148519
148594
148395
148382
148399
148386
148396
148400
148355
148471
148469
148436
148432
148258
148156
148216
148372
148386
148524
148413
148454
148441
148516
148504
148344
148300
148328
148341
148293
148275
148310
148317
148352
148299
148361
148454
148428
148485
148279
148380
148412
148294
148289
148381
148367
148229
148303
148429
148416
148399
148365
148379
148226
148205
148172
148168
148219
148217
148341
148348
148333
148240
148311
148368
148405
148326
148297
148225
148254
148293
148325
148430
148344
148323
148322
148344
148372
148280
148301
148363
148288
148311
148210
148290
148318
148352
148287
148253
148207
148278
148292
148238
148237
148215
148367
148491
148507
148378
148340
148236
148160
148131
148134
148196
148224
148235
148326
148259
148359
148347
148274
148261
148262
148239
148290
148233
148165
148190
148249
148152
148150
148286
148340
148401
148350
148328
148321
148196
148130
148183
148313
148342
148391
148387
148292
148288
148337
148278
148219
148300
148206
148162
148091
148268
148337
148245
148159
148083
148169
148213
148208
148286
148252
148280
148189
148138
148171
148085
148042
148106
148142
148133
148204
148284
148232
148304
148359
148381
148224
148179
148206
148210
148150
148182
148201
148240
148287
148275
148261
148286
148215
148177
148190
148232
148231
148139
148215
148299
148202
148056
148104
148168
148225
148219
148264
148166
148043
148116
148210
148186
148258
148258
148173
148158
148214
148176
148113
148043
148098
148131
148129
148036
147997
148014
148113
148260
148313
148229
148244
148093
148103
148113
148042
148138
148200
148391
148357
148178
148108
148187
148248
148216
148184
148067
148116
148095
148041
147983
148041
148121
148052
147985
147980
148071
148076
148056
148112
148112
148080
148071
148158
148080
148091
148108
148115
148137
148217
148266
148261
148325
148386
148402
148313
148217
148181
148153
148100
148026
147969
147931
147808
147658
147741
147910
147981
147852
147950
147939
147777
147770
147862
147875
147881
147876
147798
147773
147984
148043
148112
148079
148131
148025
148001
148059
148011
148011
148055
147921
147921
148057
147978
148007
148041
148128
148252
148198
148169
148074
148124
148165
148062
147912
147886
147993
148031
148220
148113
148107
148183
148084
148117
148080
148050
148045
147963
147973
148020
148041
148136
148203
148202
148125
148009
148078
148117
148026
148087
148113
148041
148076
148054
148190
148160
148006
148004
148055
148060
148210
148230
148284
148148
148198
148157
148123
147881
147936
147982
147965
148136
148121
148178
148069
147904
147992
147926
147981
148037
148153
148110
148104
148039
148051
148034
148142
148107
148120
148079
148107
148108
148134
148065
148017
148032
148046
148084
148128
148190
148031
148039
148098
148167
148087
148039
148036
148132
148154
148138
147986
147981
148056
148107
148279
148268
148170
148087
148101
148062
148065
148162
148195
148175
148162
148092
148117
148221
148123
148123
148128
148193
148242
148174
148231
148181
148312
148320
148309
148311
148167
148080
148069
148134
148141
148153
148104
148121
148192
148274
148226
148186
148207
148174
148093
148059
148078
148171
148212
148321
148236
148145
148061
148024
148131
148057
147959
148026
148129
148124
148198
148280
148318
148227
148276
148177
148188
148116
148091
148167
148146
148206
148297
148234
148161
148235
148293
148202
148151
148169
148174
148229
148174
148156
148161
148024
148071
148292
148344
148336
148270
148281
148275
148190
148204
148157
148163
148265
148340
148384
148285
148230
148204
148255
148236
148252
148342
148380
148324
148233
148170
148217
148294
148278
148189
148142
148251
148234
148265
148200
148128
148324
148321
148324
148259
148141
148237
148235
148264
148251
148138
148174
148080
148077
148142
148181
148228
148162
148127
147978
147976
148062
148091
148071
148087
148183
148227
148120
148072
148126
148104
148185
148193
148174
148139
148046
148166
148125
148039
148029
148023
148105
148120
148077
148075
148075
148070
148075
148099
148092
148086
148110
148131
148201
148183
148152
148126
148115
148103
148149
147977
148058
148135
148140
148047
148013
148041
148234
148335
148329
148266
148165
148215
148247
148184
148221
148252
148095
148063
148099
148100
148164
148164
148245
148200
148143
148241
148262
148264
148131
148056
148182
148299
148230
148200
148116
148171
148297
148227
148181
148139
148141
148195
148209
148164
148160
148185
148104
148193
148149
148123
148221
148202
148171
148227
148248
148179
148069
148120
148210
148200
148190
148220
148247
148245
148226
148151
148132
148099
148164
148166
148129
147998
148085
148258
148245
148237
148185
148297
148087
148138
148136
148217
148265
148193
148170
148220
148277
148234
148219
148123
148143
148273
148275
148111
148189
148338
148361
148296
148256
148268
148286
148248
148282
148322
148253
148256
148234
148226
148225
148157
148227
148305
148441
148438
148380
148407
148311
148264
148249
148199
148181
148253
148258
148367
148315
148217
148264
148301
148401
148424
148389
148444
148467
148442
148430
148417
148371
148376
148354
148258
148274
148242
148281
148324
148361
148413
148358
148288
148311
148206
148258
148414
148437
148422
148370
148452
148491
148374
148282
148265
148282
148247
148232
148248
148230
148298
148305
148448
148443
148401
148368
148384
148483
148459
148395
148372
148406
148483
148567
148605
148619
148559
148517
148557
148543
148637
148620
148514
148508
148345
148275
148228
148089
148098
148031
148127
148018
147892
147834
147869
148005
147997
148030
147921
147962
148137
148131
148080
147943
147928
148078
148250
148330
148286
148209
148199
148125
148035
148006
147990
148049
148003
148064
148115
148120
148147
148095
148090
148068
148068
148152
148130
148033
148035
147989
148031
148048
147956
147937
147922
148059
148183
148226
148198
148104
148026
148012
148087
148091
148021
148052
148006
148023
148074
148170
148205
148136
148140
148190
148085
148042
148100
148055
148062
148077
148023
147965
148004
148031
148125
148183
148168
148114
148043
147981
148039
148125
148133
148191
148150
148264
148276
148209
148057
148068
147989
148146
148241
148183
148055
148117
148231
148207
148082
147996
148078
148090
148171
148141
148094
148062
147922
147923
148015
148028
148007
148019
148052
148011
148065
148059
148096
148099
148125
148072
148016
148005
148054
147974
147958
148030
148149
148142
148102
148099
148084
148090
148185
148129
148068
148092
148069
148066
148128
148043
148084
148066
148038
148012
148066
148206
148199
148245
148096
147987
147949
147913
148026
148001
147948
148074
147975
147930
147994
147942
147983
148099
148065
148029
148019
148041
147965
148014
148056
148039
148046
147960
147970
147909
147890
147956
148031
148057
148096
148051
148101
148128
148068
148120
148138
148088
148014
148039
148054
148005
147953
148014
148014
148013
148062
148155
148092
148027
148002
147926
148046
148089
148095
148109
147965
148034
148090
148047
147950
147873
148009
148062
148081
148158
148103
148109
148170
148271
148155
148075
148064
148041
148024
148051
148176
148198
148196
148213
148166
148135
148182
148159
148112
148001
147936
148001
148065
148198
148213
148167
148199
148193
148132
148177
148129
148150
148197
148102
148016
147956
147992
148045
148071
148014
148007
148107
148086
148047
148088
148099
148090
148088
148021
147969
148029
148172
148158
148122
148086
148011
148113
148074
148032
147912
147868
147988
148053
147987
148004
148016
148039
147998
147959
148037
148001
148026
148095
148082
147991
147914
147915
148080
148097
148100
148099
148040
148126
148078
148066
148114
148156
148027
147871
147931
147907
148127
148198
148056
148021
148055
148160
148127
148090
148031
148075
148078
148020
147992
148048
148020
148106
148092
148088
148128
148057
148082
148138
148107
148129
148086
148117
148092
147983
147998
148076
148035
148097
148199
148192
148256
148265
148179
148197
148287
148243
148145
148147
148106
148070
148128
148176
148171
148149
148190
148184
148088
148131
148104
148037
147948
147967
148064
148134
148174
148134
148157
148163
148078
148015
148014
148150
148261
148185
148211
148071
148094
148163
148196
148183
148173
148164
148088
148026
148130
148085
148304
148301
148293
148101
148030
148149
148165
148084
148044
147958
148078
148152
148232
148268
148210
148135
148099
148075
148218
148203
148212
148149
148143
148191
148193
148176
148084
148181
148235
148215
148158
148174
148107
148165
148157
148126
148198
148164
148050
148058
148174
148206
148126
148081
148108
148207
148354
148291
148267
148226
148191
148223
148179
148236
148138
148094
148129
148073
148089
148039
148138
148134
148137
148243
148258
148228
148250
148251
148265
148238
148186
148099
148125
148154
148159
148149
148186
148024
148041
148077
148302
148317
148134
148202
148241
148200
148189
148136
148133
148118
148101
148111
148205
148247
148219
148311
148270
148233
148237
148169
148158
148106
148172
148216
148189
148184
148121
148062
148003
148012
148020
148122
148208
148278
148294
148306
148239
148218
148225
148151
148125
148095
148071
148023
148020
148263
148401
148396
148425
148412
148430
148426
148367
148329
148314
148214
148212
148235
148278
148165
148196
148093
147912
147837
147796
147854
147885
147841
147827
147860
147821
147813
147887
147906
147983
148146
148127
148067
148043
148056
148107
148135
148154
148334
148260
148150
148123
148114
148164
148039
148077
148204
148159
148164
148175
148221
148283
148149
148209
148144
148195
148127
148081
148153
148144
148246
148310
148203
148148
148142
148232
148290
148288
148214
148104
148181
148241
148303
148246
148284
148290
148303
148303
148249
148136
148169
148206
148190
148211
148113
148152
148185
148193
148263
148340
148332
148323
148326
148311
148274
148197
148274
148305
148243
148213
148255
148279
148280
148257
148193
148389
148396
148335
148335
148297
148260
148223
148268
148311
148308
148355
148338
148355
148309
148282
148229
148127
148205
148354
148400
148380
148330
148277
148193
148161
148279
148279
148273
148244
148237
148328
148312
148377
148314
148225
148308
148373
148373
148252
148293
148265
148259
148193
148170
148198
148314
148323
148343
148277
148226
148335
148308
148364
148326
148253
148202
148239
148323
148373
148218
148198
148285
148171
148259
148375
148360
148408
148428
148365
148295
148350
148373
148344
148377
148324
148329
148351
148245
148202
148284
148311
148396
148279
148261
148242
148192
148282
148193
148242
148311
148304
148414
148350
148270
148331
148346
148340
148240
148303
148174
148325
148399
148409
148370
148371
148368
148255
148305
148366
148338
148375
148411
148382
148371
148425
148490
148320
148392
148398
148418
148425
148423
148338
148230
148314
148463
148515
148449
148331
148271
148377
148400
148453
148374
148196
148312
148475
148546
148451
148448
148406
148457
148447
148501
148404
148403
148459
148493
148476
148463
148467
148464
148491
148487
148374
148531
148606
148653
148619
148478
148502
148599
148570
148471
148361
148233
148274
148323
148514
148443
148458
148564
148564
148507
148378
148414
148550
148528
148464
148496
148501
148485
148480
148431
148304
148336
148463
148498
148437
148354
148419
148399
148387
148434
148519
148464
148400
148462
148560
148484
148452
148487
148487
148490
148447
148417
148437
148445
148438
148415
148528
148572
148516
148482
148569
148592
148631
148565
148517
148441
148567
148533
148499
148530
148476
148460
148627
148567
148404
148487
148481
148533
148556
148497
148485
148676
148615
148590
148599
148517
148505
148436
148442
148481
148554
148739
148644
148560
148545
148533
148495
148615
148622
148619
148630
148633
148685
148658
148567
148548
148630
148681
148708
148670
148469
148405
148508
148660
148697
148586
148675
148722
148618
148555
148522
148587
148655
148611
148628
148508
148461
148544
148565
148604
148708
148622
148641
148594
148604
148643
148653
148604
148606
148577
148544
148559
148657
148745
148751
148758
148725
148717
148647
148494
148408
148505
148738
148891
148782
148525
148447
148536
148601
148568
148530
148573
148718
148731
148657
148670
148619
148680
148708
148727
148630
148533
148566
148544
148506
148482
148501
148532
148619
148651
148622
148608
148713
148712
148657
148574
148623
148655
148521
148555
148628
148695
148561
148463
148574
148624
148694
148601
148602
148574
148549
148597
148659
148632
148665
148576
148489
148511
148574
148572
148521
148522
148528
148676
148690
148663
148679
148635
148607
148567
148613
148584
148546
148522
148529
148617
148638
148744
148725
148570
148505
148559
148591
148541
148565
148545
148594
148640
148721
148850
148564
148619
148647
148509
148526
148495
148640
148752
148672
148609
148562
148590
148543
148681
148609
148476
148562
148629
148618
148622
148537
148626
148780
148774
148680
148490
148484
148521
148499
148496
148472
148483
148483
148455
148508
148596
148729
148578
148434
148445
148569
148679
148607
148558
148703
148677
148709
148605
148571
148625
148587
148705
148663
148697
148703
148766
148891
148775
148713
148682
148666
148793
148774
148752
148722
148531
148481
148461
148332
148285
148226
148225
148155
148030
148116
148267
148323
148242
148266
148420
148412
148345
148344
148369
148438
148512
148593
148481
148601
148469
148331
148340
148456
148517
148520
148506
148552
148535
148525
148531
148481
148485
148422
148400
148447
148475
148564
148601
148577
148532
148538
148433
148465
148463
148466
148589
148660
148582
148492
148449
148486
148504
148488
148604
148622
148398
148398
148355
148408
148615
148500
148444
148578
148689
148580
148471
148456
148471
148395
148399
148431
148590
148586
148529
148537
148570
148555
148553
148497
148512
148542
148529
148479
148497
148546
148533
148532
148443
148402
148443
148568
148690
148649
148685
148618
148555
148529
148562
148540
148448
148408
148487
148535
148489
148533
148489
148509
148543
148547
148579
148409
148443
148488
148574
148644
148521
148535
148534
148569
148480
148402
148416
148393
148444
148496
148417
148386
148404
148558
148651
148507
148446
148489
148549
148600
148465
148507
148629
148515
148416
148469
148595
148512
148566
148606
148448
148460
148525
148525
148513
148532
148547
148552
148484
148479
148388
148387
148434
148482
148400
148337
148381
148387
148380
148448
148439
148496
148511
148434
148383
148321
148267
148211
148239
148324
148432
148633
148543
148453
148426
148399
148433
148373
148323
148301
148223
148275
148299
148387
148385
148378
148391
148374
148401
148433
148378
148418
148378
148402
148430
148373
148203
148316
148364
148320
148256
148318
148371
148393
148390
148261
148322
148399
148553
148419
148254
148379
148522
148480
148437
148319
148278
148377
148533
148486
148395
148347
148374
148410
148424
148393
148436
148497
148456
148541
148464
148373
148259
148371
148434
148372
148356
148303
148305
148378
148391
148349
148318
148347
148449
148447
148513
148462
148250
148305
148235
148226
148237
148396
148436
148447
148376
148266
148141
148255
148333
148451
148403
148361
148263
148232
148174
148222
148348
148351
148266
148251
148265
148338
148281
148196
148286
148304
148294
148355
148356
148175
148211
148397
148337
148265
148264
148280
148236
148273
148268
148248
148257
148174
148172
148172
148240
148245
148178
148148
148206
148301
148346
148423
148421
148339
148360
148267
148343
148314
148265
148357
148297
148306
148382
148301
148225
148272
148286
148245
148201
148229
148245
148319
148294
148209
148240
148285
148216
148276
148212
148183
148175
148128
148197
148213
148254
148180
148140
148173
148137
148113
148077
148221
148294
148183
148226
148326
148290
148232
148281
148270
148268
148290
148220

[算法提取后的结构化特征]
# 由 EcgFeatureExtractor.extract() + toPromptText() 在手机端重建
# 注意: 本次测量为 raw 模式，本地算法未参与 DS 分析；此处重建仅作对照基线
#       raw 模式实际发给 DS 的是去趋势原始波形（见下方 [raw 模式发给 DS 的波形]）
# 注意: 用户 profile（年龄性别）未存入测量记录，手机端重建时为'未知'
#       助手如需年龄性别做医学判断，需用户单独提供

[用户属性]

[全局指标]
算法版本:v8
采样率:500Hz 时长:30.8s 总点数:15400
R波检测:32个 平均心率:60bpm 范围:57-71bpm
R波位置(样本索引):112,580,834,1607,2442,3150,3670,4170,4468,5454,5689,6211,6553,6849,7205,7394,8253,8427,8587,9113,9298,10206,11128,11417,11910,12334,12510,12927,14733,14883,15043,15296
RR间期序列(ms，[*]为偏离均值>20%的异常间期，多为早搏/误检):936 [508*] [1546*] [1670*] [1416*] 1040 1000 [596*] [1972*] [470*] 1044 [684*] [592*] [712*] [378*] [1718*] [348*] [320*] 1052 [370*] [1816*] [1844*] [578*] 986 848 [352*] 834 [300*] [320*] [506*]
RR差值序列(ms):-428,1038,124,-254,-376,-40,-404,1376,-1502,574,-360,-92,120,-334,1340,-1370,-28,732,-682,1446,28,-1266,408,-138,-496,482,-534,20,186
SDNN:81.2ms RMSSD:73.7ms pNN50:42.9%
QRS宽度(本地估测,ms):90±19 置信度:高置信
PR间期(本地估测,ms):171±52
QT间期(本地估测,ms):400 QTc(Bazett):400ms QTc(Fridericia):400ms 置信度:低置信
注:低置信间期为生理学先验值（腕表信号物理上限），判读时仅供参考，不应作为强证据
R波平均振幅:0.30mV
R波极性:负向(负向提示导联反接/位置异常)
T/R振幅比:1.42(正常0.1-0.5，<0.1低平，>0.5高尖)
ST段偏移(本地估测,mV):-0.086(正常±0.05，>0.1抬高，<-0.1压低)
信号质量:0.99 良好
噪声段:21.0-22.0s(噪声)

[节律判别特征]
R波可靠性:可信
RR变异系数:0.084(轻度不齐)
Poincaré散点形态:鱼雷形(轻度不齐)
短-长RR配对数(早搏代偿):4个

[逐秒分段]
时段(s)  R波  振幅范围(mV)  峰峰值(mV)  最大斜率(mV/s)  RMS(mV)
0.0-1.0  1  -0.35~0.52  0.87  112.50  0.16
1.0-2.0  2  -1.03~0.99  2.02  133.00  0.49  ← 短RR+代偿间隙(早搏可能)
2.0-3.0  0  -0.63~0.46  1.10  101.50  0.25  ← 代偿间隙(配合前秒短RR)
3.0-4.0  1  -1.68~3.12  4.81  105.50  1.78
4.0-5.0  1  -0.60~0.90  1.50  126.50  0.38
5.0-6.0  0  -0.48~0.61  1.09  129.50  0.21  ← 本秒无R波(心率<60或代偿间隙)
6.0-7.0  1  -0.77~0.67  1.43  102.50  0.41
7.0-8.0  1  -0.53~0.48  1.01  117.50  0.24
8.0-9.0  2  -0.57~0.72  1.28  128.50  0.28  ← 短RR+代偿间隙(早搏可能)
9.0-10.0  0  -0.51~0.41  0.92  128.50  0.18  ← 代偿间隙(配合前秒短RR)
10.0-11.0  1  -0.50~0.57  1.06  122.00  0.22
11.0-12.0  1  -0.71~0.94  1.65  117.00  0.49
12.0-13.0  1  -0.44~0.42  0.86  118.00  0.23
13.0-14.0  2  -0.54~0.52  1.05  135.00  0.23
14.0-15.0  2  -0.89~0.77  1.66  114.00  0.36  ← 短RR+代偿间隙(早搏可能)
15.0-16.0  0  -0.54~0.56  1.10  116.00  0.25  ← 代偿间隙(配合前秒短RR)
16.0-17.0  2  -0.59~0.48  1.07  119.50  0.27
17.0-18.0  1  -0.47~0.68  1.15  128.50  0.23
18.0-19.0  2  -0.50~0.52  1.01  149.00  0.23  ← 短RR+代偿间隙(早搏可能)
19.0-20.0  0  -0.42~0.36  0.78  137.50  0.11  ← 代偿间隙(配合前秒短RR)
20.0-21.0  1  -0.55~0.37  0.92  125.00  0.20
21.0-22.0  0  -0.35~0.35  0.70  113.00  0.09  ← 噪声段
22.0-23.0  2  -0.59~0.38  0.97  127.50  0.21
23.0-24.0  1  -0.69~0.50  1.19  135.00  0.28
24.0-25.0  1  -0.64~0.42  1.06  152.00  0.15
25.0-26.0  2  -0.56~0.42  0.99  111.50  0.19  ← 短RR+代偿间隙(早搏可能)
26.0-27.0  0  -0.73~0.69  1.42  106.50  0.28  ← 代偿间隙(配合前秒短RR)
27.0-28.0  0  -0.35~0.45  0.80  121.00  0.13  ← 本秒无R波(心率<60或代偿间隙)
28.0-29.0  0  -0.31~0.33  0.63  121.50  0.10  ← 本秒无R波(心率<60或代偿间隙)
29.0-30.0  2  -0.46~0.45  0.91  143.00  0.17
逐秒RMS:0.158,0.489,0.248,1.779,0.382,0.211,0.412,0.241,0.280,0.178,0.216,0.487,0.227,0.229,0.361,0.251,0.275,0.232,0.227,0.112,0.199,0.094,0.207,0.279,0.149,0.185,0.282,0.130,0.104,0.172

[AI 解读]
# DeepSeek 返回的原始 JSON（未清洗，可能含 markdown 代码块包裹）
{
  "算法版本": "raw-v1(原始波形直传,未经本地算法)",
  "平均心率": 75,
  "最小心率": 65,
  "最大心率": 85,
  "心率范围": "65-85 bpm",
  "心率稳定性": "RR间期轻度波动,可见呼吸性变异,整体稳定",
  "心率置信度": "中",
  "SDNN_ms": 40.0,
  "RMSSD_ms": 30.0,
  "pNN50_pct": 10.0,
  "HRV解读": "SDNN/RMSSD处于正常范围,副交感张力正常",
  "HRV置信度": "中",
  "节律判断": "窦性心律",
  "节律依据": "RR间期变异系数约0.10,呼吸性变异,Poincaré散点呈彗星形",
  "Poincare形态": "彗星形",
  "SD1_ms": 25.0,
  "SD2_ms": 50.0,
  "早搏提示": [],
  "节律置信度": "中",
  "PR间期_ms": "数据不足,无法判断",
  "PR判断": "P波不可辨,无法测量",
  "PR置信度": "低",
  "QRS宽度_ms": 100,
  "QRS判断": "正常范围(80-120ms)",
  "QRS置信度": "中",
  "QT间期_ms": 380,
  "QTc_ms": 410,
  "QTcFridericia_ms": 400,
  "QTc判断": "正常范围(男<440,女<460)",
  "QTc置信度": "低",
  "间期测量说明": "R波振幅较大但部分时段基线漂移明显,QRS可测；P波振幅极小,PR无法准确测量；T波终点定位受基线漂移影响,QT/QTc为估测值",
  "R波极性": "正向（部分时段负向,导联方向不稳定）",
  "T波方向": "与R波同向（部分时段无法判断）",
  "ST段": "无明显偏移",
  "R波振幅评估": "相对值约200-1500,变化较大",
  "信号质量": "中等",
  "噪声段": ["0.0-2.0s 基线漂移明显", "15.0-16.0s 振幅偏低"],
  "异常提示": [],
  "综合解读": "窦性心律,心率75bpm,HRV正常,未见明显心律失常。部分时段基线漂移影响间期测量精度,P波不可辨,QT间期为估测值。年轻男性,呼吸性窦性心律不齐属正常生理变异。",
  "健康建议": [
    "建议定期复查标准12导联心电图以获取更精确的心脏电生理评估。",
    "保持良好生活习惯,避免过度劳累。"
  ],
  "免责声明": "本报告基于腕表单导联ECG原始波形由AI直接分析生成,间期/HRV/形态均为AI从波形估测,未经本地算法与临床医师审核,仅供健康参考,不作为医疗诊断依据。如有不适请就医复查标准12导联心电图。"
}
