========== ECG 算法诊断包 ==========
测量时间: 2026-07-17 10:13:48
测量时间戳:1784254428255
采样率:500 Hz
数据点数:15460
时长:30.9 秒
分析方法:heartvoice

[原始 ECG 数据]
# 单位: mV×1000 整数（如 500 = 0.5mV，-1000 = -1.0mV）
# 采样率: 500 Hz，连续采样，无降采样无压缩
# 用途: 助手据此复现本地算法行为（基线漂移/噪声段/R波检测）
# 格式: 每行一个数值，行号=采样点索引（第1行=索引0，即 t=0.000s）
152629
152651
152663
152664
152706
152670
152728
152719
152725
152676
152568
152635
152714
152757
152729
152749
152809
152835
152842
152826
152733
152716
152737
152688
152727
152785
152853
152840
152786
152806
152829
152874
152857
152806
152798
152840
152911
152871
152940
152946
152853
152843
152918
152971
153006
152951
152967
152944
152922
152897
152833
152860
152935
152967
152952
152948
153098
153124
153076
153086
153111
153051
153040
153010
153014
152980
153093
153113
153067
153083
153030
152986
152982
153024
153010
153012
153070
153079
153132
153196
153155
153195
153202
153194
153197
153136
153209
153263
153269
153239
153137
153108
153150
153201
153186
153152
153163
153238
153338
153402
153293
153234
153202
153207
153156
153144
153257
153285
153235
153249
153283
153337
153214
153240
153212
153261
153320
153366
153366
153351
153317
153339
153398
153423
153408
153404
153366
153362
153370
153382
153368
153355
153341
153274
153317
153339
153492
153634
153523
153556
153529
153523
153494
153455
153410
153440
153462
153571
153542
153535
153473
153465
153478
153472
153469
153498
153554
153605
153632
153648
153681
153630
153638
153679
153581
153511
153582
153585
153555
153446
153454
153577
153632
153704
153664
153578
153625
153664
153678
153661
153608
153614
153616
153615
153614
153605
153634
153618
153625
153645
153641
153581
153563
153622
153697
153661
153666
153671
153640
153632
153684
153635
153617
153647
153673
153649
153704
153739
153781
153762
153808
153813
153764
153700
153721
153655
153696
153740
153771
153759
153718
153685
153812
153862
153864
153766
153795
153787
153890
153961
153851
153825
153821
153845
153840
153878
153998
154015
154048
154016
153945
153887
153849
153871
153875
153939
154089
154117
154092
154090
154066
154045
153969
153991
154022
153960
154025
154063
154110
154152
154160
154179
154147
154192
154106
154102
154158
154172
154192
154182
154203
154236
154187
154137
154155
154166
154232
154226
154204
154190
154196
154218
154166
154148
154189
154201
154234
154240
154269
154304
154321
154231
154207
154189
154147
154141
154180
154241
154239
154254
154203
154227
154294
154283
154233
154187
154211
154204
154240
154271
154292
154322
154336
154380
154345
154229
154232
154297
154321
154379
154392
154415
154367
154344
154437
154476
154634
154615
154549
154552
154519
154485
154481
154487
154390
154293
154301
154285
154240
154161
154152
154158
154177
154192
154210
154188
154200
154270
154319
154366
154428
154468
154433
154451
154409
154361
154432
154575
154641
154685
154588
154562
154653
154731
154646
154587
154665
154683
154618
154685
154673
154644
154641
154682
154651
154597
154582
154712
154758
154772
154706
154691
154719
154724
154677
154631
154743
154761
154796
154788
154760
154801
154798
154822
154797
154713
154694
154773
154817
154912
154857
154815
154803
154801
154770
154709
154677
154743
154889
154898
154941
155007
154912
154856
154991
154889
154878
154905
154861
154836
154880
154952
154987
155023
155017
154966
155017
155120
155103
155040
155025
155022
155036
155008
155042
155071
155042
155151
155127
155190
155152
155139
155161
155045
154990
154954
155026
155123
155249
155265
155287
155240
155120
155117
155135
155152
155174
155193
155203
155223
155230
155233
155174
155154
155116
155110
155107
155138
155149
155142
155104
155125
155070
155064
155065
155048
155044
155004
155026
154988
154881
154913
154906
154860
154792
154837
154902
155004
155079
155047
154996
154989
154921
154931
154922
154882
154824
154838
154873
154960
154986
155150
155141
155048
155016
154955
155023
155053
155042
155021
154987
155044
155008
155021
155013
155036
155010
155025
155074
155174
155155
155146
155149
155197
155205
155183
155157
155217
155186
155177
155148
155146
155169
155309
155371
155231
155172
155207
155252
155405
155457
155434
155342
155325
155335
155290
155290
155307
155298
155340
155375
155380
155361
155330
155343
155350
155318
155369
155421
155459
155420
155415
155382
155303
155350
155350
155373
155389
155511
155543
155412
155402
155408
155379
155408
155438
155430
155487
155473
155423
155409
155456
155481
155527
155487
155439
155469
155483
155508
155534
155439
155456
155457
155550
155630
155588
155543
155616
155621
155576
155569
155609
155590
155524
155495
155558
155651
155689
155708
155657
155628
155594
155576
155607
155662
155717
155750
155692
155695
155669
155652
155734
155671
155625
155625
155628
155757
155834
155791
155840
155780
155720
155699
155676
155715
155644
155663
155786
155835
155895
155824
155857
155841
155797
155787
155758
155693
155743
155774
155836
155888
155869
155831
155760
155823
155797
155820
155922
155933
155852
155775
155813
155788
155793
155886
155993
156068
155999
155999
155984
155940
156036
156088
156001
156006
155983
155947
155989
155974
156068
156030
156066
156113
156141
156178
156117
156062
156072
156155
156137
156124
156136
156076
156057
156132
156085
156115
156188
156237
156234
156142
156158
156177
156166
156215
156224
156254
156314
156265
156261
156258
156311
156355
156294
156207
156211
156181
156275
156400
156427
156374
156392
156279
156231
156221
156247
156343
156404
156411
156343
156312
156332
156330
156317
156368
156242
156175
156180
156247
156372
156405
156416
156484
156492
156407
156465
156506
156415
156400
156403
156356
156395
156418
156412
156467
156446
156493
156533
156547
156518
156466
156507
156512
156591
156507
156450
156495
156549
156616
156652
156633
156628
156661
156685
156607
156562
156578
156687
156712
156664
156610
156658
156700
156677
156703
156715
156790
156786
156786
156779
156723
156756
156782
156775
156761
156714
156714
156751
156905
156839
156786
156849
156882
156815
156790
156806
156907
156931
156881
156865
156859
156956
156952
156893
156864
156789
156870
156874
156925
156939
156926
156963
156953
156867
156879
156866
156901
156865
156856
156929
156982
157017
157099
157053
156956
156908
156876
156936
156996
157006
156991
157053
157009
156963
156914
156873
156910
156965
157013
157066
157035
157084
157131
157095
157060
157027
157124
157072
157116
157233
157232
157246
157262
157249
157242
157185
157248
157262
157295
157263
157087
157124
157140
157068
156970
156802
156686
156769
156920
156973
156888
156889
156883
156897
156845
156814
156896
156915
156942
156982
157009
157050
157046
157070
157077
157093
157183
157192
157350
157423
157320
157278
157266
157308
157364
157339
157365
157419
157447
157450
157421
157386
157398
157424
157442
157348
157321
157272
157328
157289
157239
157344
157399
157393
157407
157407
157424
157395
157437
157513
157508
157457
157468
157369
157393
157401
157459
157419
157427
157466
157461
157497
157511
157447
157431
157408
157436
157440
157470
157508
157520
157569
157560
157584
157544
157427
157371
157356
157517
157676
157752
157776
157766
157663
157667
157607
157623
157610
157572
157668
157727
157647
157728
157802
157696
157645
157635
157733
157768
157803
157889
157890
157854
157777
157726
157655
157642
157654
157696
157776
157781
157874
157877
157797
157831
157785
157774
157749
157785
157817
157809
157807
157818
157799
157744
157720
157712
157659
157669
157730
157764
157857
157844
157786
157734
157723
157786
157781
157733
157763
157702
157705
157740
157726
157779
157713
157703
157668
157782
157849
157762
157730
157820
157762
157699
157667
157722
157708
157701
157693
157760
157865
157827
157819
157839
157821
157760
157682
157771
157851
157851
157943
157909
157924
157944
157949
157946
157931
157880
157861
157877
157914
157956
157980
158007
157980
157961
157935
157956
157964
157975
158034
158005
157977
157949
157947
157963
157926
157919
157964
158011
158017
158012
157957
157996
158005
158066
158024
158051
158034
158010
158025
158016
157976
158030
158032
158026
158089
158137
158109
158095
158077
158103
158105
158074
157982
158022
158059
158057
158063
157963
158001
158034
158052
158026
157963
158012
158094
158125
158116
158083
158050
158021
158094
158107
158064
158089
158105
158051
158119
158085
158115
158160
158185
158159
158109
158182
158182
158170
158227
158264
158248
158279
158270
158217
158172
158200
158189
158203
158268
158179
158161
158239
158279
158296
158289
158245
158198
158190
158187
158204
158249
158241
158188
158170
158094
158125
158157
158188
158340
158462
158474
158445
158412
158437
158310
158293
158290
158337
158428
158331
158344
158459
158447
158454
158411
158420
158439
158362
158397
158463
158498
158464
158435
158401
158353
158372
158417
158413
158495
158454
158472
158439
158476
158376
158340
158493
158558
158515
158530
158529
158589
158611
158556
158499
158371
158429
158501
158547
158644
158596
158622
158640
158664
158566
158525
158634
158607
158566
158612
158569
158605
158644
158652
158658
158613
158615
158592
158594
158567
158536
158623
158583
158560
158482
158479
158628
158704
158779
158745
158668
158644
158651
158675
158689
158634
158617
158623
158657
158689
158744
158787
158704
158734
158695
158685
158768
158771
158729
158706
158658
158737
158724
158698
158708
158761
158796
158836
158815
158791
158738
158787
158849
158942
158970
158856
158845
158867
158830
158875
158886
158923
158883
158859
158875
158903
158961
158981
158971
158993
158908
158917
158965
158980
158948
158917
158961
158977
158922
158939
158912
159026
159058
158911
158890
158889
158912
158945
158948
159062
159117
159095
159114
159024
158966
158949
158987
158969
159101
159216
159163
159180
159188
159200
159178
159091
159128
159083
159075
159131
159130
159206
159187
159172
159210
159200
159171
159187
159130
159137
159155
159182
159198
159186
159046
158970
159034
159148
159191
159223
159258
159248
159235
159297
159217
159192
159196
159136
159102
159211
159226
159303
159290
159339
159386
159284
159288
159265
159246
159276
159216
159204
159270
159356
159342
159321
159310
159344
159398
159415
159408
159506
159543
159567
159535
159433
159461
159453
159476
159456
159396
159345
159293
159217
159126
159019
159077
159126
159094
159114
159102
159248
159252
159303
159356
159281
159307
159341
159320
159295
159391
159481
159508
159528
159530
159424
159435
159562
159630
159606
159575
159582
159525
159542
159533
159516
159562
159568
159557
159556
159592
159639
159616
159648
159582
159500
159493
159517
159583
159616
159560
159571
159617
159635
159660
159574
159596
159597
159590
159612
159582
159630
159644
159651
159630
159559
159529
159485
159573
159676
159654
159756
159794
159779
159714
159638
159617
159632
159671
159668
159650
159739
159699
159737
159719
159691
159714
159729
159710
159722
159699
159657
159737
159744
159731
159643
159678
159716
159764
159765
159796
159838
159832
159828
159848
159780
159823
159812
159783
159804
159921
159993
159866
159885
159905
159829
159853
159790
159786
159822
159821
159807
159857
159936
159973
159901
159868
159865
159848
159888
159861
159813
159834
159837
159859
159762
159698
159719
159721
159776
159789
159884
159851
159898
159877
159788
159855
159873
159789
159811
159829
159883
159900
159891
159865
159841
159811
159778
159781
159830
159830
159892
159877
159790
159831
159778
159860
159923
159889
159873
159930
159989
159957
159968
159949
159810
159825
159905
159943
159929
159963
160077
160116
160079
159997
159984
159936
159948
159941
159978
159996
160100
160145
160126
160130
160009
159944
159968
159973
159982
159966
160091
160122
160232
160250
160095
160098
160081
159950
159943
159996
160047
160051
160085
160144
160176
160214
160117
160009
160030
160066
160094
160077
160102
160146
160068
160059
160102
160107
160131
160125
160185
160161
160079
160062
159978
159975
160009
160050
160058
160139
160153
160188
160187
160176
160121
160094
160143
160097
160112
160083
160070
160116
160100
160146
160131
160234
160193
160094
160062
160029
160044
160136
160201
160213
160160
160142
160178
160225
160208
160151
160183
160190
160192
160188
160140
160189
160178
160142
160154
160167
160227
160262
160285
160218
160123
160163
160189
160219
160197
160193
160233
160251
160268
160237
160157
160186
160210
160205
160213
160230
160357
160384
160356
160296
160210
160236
160245
160318
160354
160348
160485
160463
160441
160418
160339
160294
160240
160238
160223
160239
160366
160402
160401
160346
160275
160323
160355
160382
160353
160374
160412
160417
160452
160452
160361
160310
160233
160241
160384
160452
160555
160606
160640
160623
160506
160472
160462
160461
160509
160539
160605
160600
160615
160649
160509
160487
160464
160400
160346
160376
160551
160623
160556
160519
160456
160487
160490
160547
160622
160601
160593
160581
160582
160655
160499
160507
160593
160616
160622
160589
160679
160661
160589
160641
160585
160633
160690
160616
160546
160525
160651
160684
160669
160658
160593
160579
160580
160497
160493
160489
160553
160606
160569
160588
160515
160545
160616
160674
160666
160629
160667
160664
160665
160705
160705
160623
160610
160613
160559
160546
160634
160738
160787
160730
160623
160582
160615
160622
160637
160547
160633
160680
160764
160907
160927
160849
160652
160611
160619
160616
160681
160744
160771
160770
160763
160696
160734
160781
160775
160714
160775
160770
160700
160770
160800
160779
160792
160832
160791
160752
160730
160762
160813
160821
160760
160726
160738
160717
160749
160722
160798
160796
160851
160870
160831
160794
160780
160682
160621
160635
160764
160774
160809
160810
160775
160773
160718
160688
160722
160687
160719
160743
160746
160784
160796
160838
160792
160828
160870
160826
160874
160849
160860
160905
160983
161007
160919
160926
160819
160788
160901
160947
160896
160813
160706
160640
160588
160504
160447
160478
160511
160581
160577
160550
160551
160650
160696
160745
160714
160697
160809
160803
160823
160845
160804
160823
160908
160970
160981
160852
160912
161058
161132
161168
161066
160991
160978
160963
161036
160965
161005
161105
161176
161179
161129
161127
161085
161112
161095
161005
161083
161127
161057
161030
161066
161048
161052
161019
161068
161067
161118
161232
161190
161096
161060
161128
161064
161104
161154
161136
161235
161208
161270
161212
161113
161112
161054
161126
161150
161199
161169
161202
161343
161337
161241
161195
161178
161186
161183
161202
161271
161334
161352
161318
161260
161290
161291
161304
161312
161247
161244
161266
161327
161362
161347
161350
161322
161282
161270
161302
161329
161372
161401
161318
161267
161328
161393
161425
161419
161407
161497
161449
161400
161371
161286
161359
161381
161418
161487
161495
161500
161464
161404
161384
161369
161322
161353
161403
161389
161364
161450
161425
161401
161376
161320
161334
161330
161407
161404
161303
161303
161356
161365
161345
161327
161311
161272
161258
161230
161148
161210
161290
161362
161351
161332
161284
161275
161301
161320
161253
161251
161253
161197
161174
161249
161239
161233
161233
161258
161242
161230
161263
161266
161297
161274
161312
161307
161219
161185
161191
161207
161226
161208
161237
161238
161243
161199
161159
161214
161294
161382
161432
161401
161401
161353
161351
161322
161295
161285
161289
161337
161367
161335
161285
161296
161265
161231
161278
161340
161333
161338
161362
161375
161356
161349
161352
161280
161211
161181
161215
161307
161371
161415
161478
161491
161405
161352
161411
161392
161244
161205
161268
161291
161286
161362
161406
161427
161405
161356
161338
161396
161400
161396
161395
161264
161294
161307
161351
161368
161342
161387
161427
161405
161355
161299
161277
161277
161312
161312
161322
161419
161402
161364
161370
161387
161459
161449
161393
161309
161224
161266
161307
161263
161264
161309
161494
161469
161351
161329
161264
161392
161548
161516
161436
161402
161361
161345
161418
161410
161326
161330
161388
161431
161410
161339
161307
161281
161279
161292
161331
161425
161480
161609
161568
161433
161410
161379
161385
161403
161339
161311
161383
161410
161420
161472
161553
161657
161573
161485
161380
161438
161583
161579
161522
161493
161488
161484
161461
161527
161547
161567
161585
161590
161602
161537
161507
161530
161509
161518
161460
161454
161470
161544
161584
161577
161536
161496
161449
161428
161412
161549
161548
161513
161557
161554
161647
161645
161614
161530
161483
161512
161546
161622
161561
161541
161560
161527
161507
161513
161561
161528
161645
161691
161643
161543
161551
161569
161533
161532
161481
161519
161526
161624
161656
161574
161614
161593
161547
161534
161479
161572
161612
161650
161685
161675
161707
161715
161664
161697
161652
161649
161622
161635
161650
161676
161707
161776
161743
161724
161694
161693
161773
161759
161735
161709
161738
161682
161640
161653
161691
161698
161774
161783
161832
161770
161720
161701
161761
161722
161664
161602
161602
161663
161758
161822
161793
161782
161794
161725
161726
161777
161779
161755
161717
161652
161750
161756
161708
161703
161679
161716
161746
161764
161733
161725
161705
161690
161636
161681
161731
161693
161805
161818
161765
161708
161756
161674
161629
161582
161585
161765
161839
161851
161885
161773
161798
161760
161746
161756
161727
161736
161702
161700
161716
161678
161744
161745
161690
161718
161800
161758
161735
161711
161745
161755
161804
161863
161802
161761
161694
161659
161741
161724
161706
161678
161747
161796
161789
161807
161872
161859
161825
161844
161781
161784
161846
161831
161801
161792
161694
161715
161769
161837
161850
161774
161792
161801
161785
161699
161655
161692
161746
161724
161782
161868
162007
161969
161848
161813
161899
161978
162018
162044
162006
161944
161947
161935
161870
161781
161739
161728
161676
161662
161627
161474
161461
161586
161587
161616
161524
161470
161548
161612
161661
161657
161692
161657
161612
161714
161687
161823
161938
161882
161902
161872
161915
161917
161872
161821
161797
161862
161804
161849
161878
161818
161852
161871
161874
161851
161775
161789
161836
161865
161851
161775
161879
161922
161881
161902
161860
161902
161855
161795
161775
161799
161794
161810
161750
161788
161762
161855
161852
161868
161894
161832
161881
161906
161827
161755
161676
161672
161693
161734
161812
161822
161850
161855
161797
161791
161738
161768
161835
161847
161808
161768
161788
161709
161704
161715
161613
161701
161768
161825
161834
161859
161963
162007
162022
161955
161890
161851
161792
161845
161862
161826
161864
161857
161863
161879
161849
161834
161844
161913
161912
161830
161854
161833
161798
161825
161799
161764
161781
161905
161929
161831
161821
161806
161711
161663
161649
161705
161799
161802
161806
161799
161786
161788
161712
161671
161612
161629
161614
161636
161661
161710
161691
161696
161644
161538
161502
161567
161625
161649
161664
161586
161585
161566
161501
161397
161325
161479
161608
161657
161698
161635
161620
161583
161522
161416
161400
161488
161526
161627
161659
161585
161647
161644
161614
161585
161579
161542
161532
161579
161507
161599
161614
161616
161569
161564
161558
161621
161638
161657
161551
161435
161514
161623
161697
161695
161648
161665
161578
161563
161656
161672
161670
161602
161550
161501
161479
161534
161606
161630
161654
161588
161605
161555
161498
161454
161392
161462
161536
161587
161631
161601
161528
161519
161547
161499
161398
161321
161354
161433
161512
161520
161577
161620
161537
161446
161405
161385
161429
161556
161579
161549
161538
161451
161423
161401
161439
161422
161487
161477
161465
161392
161408
161567
161579
161577
161581
161509
161507
161564
161568
161515
161481
161494
161595
161657
161665
161620
161491
161543
161639
161680
161663
161659
161577
161541
161526
161534
161580
161644
161676
161640
161564
161633
161596
161594
161560
161571
161560
161552
161537
161501
161602
161722
161717
161710
161723
161719
161602
161571
161648
161674
161635
161652
161704
161603
161563
161652
161694
161747
161738
161714
161707
161697
161713
161654
161597
161601
161613
161685
161726
161705
161684
161705
161823
161723
161690
161815
161862
161864
161864
161807
161772
161755
161775
161809
161775
161805
161804
161808
161862
161830
161862
161822
161791
161813
161800
161819
161882
161936
161876
161810
161847
161895
161951
161872
161855
161819
161855
161845
161878
161866
161931
161937
161819
161767
161773
161791
161827
161891
161951
161932
161920
161885
161879
161879
161847
161832
161789
161760
161737
161743
161827
161823
161777
161809
161833
161831
161782
161792
161830
161901
161900
161897
161939
161873
161800
161841
161881
161939
161936
161901
161892
161937
161991
161954
161866
161888
161887
161899
161939
161919
161978
161991
161961
162027
162011
161997
161971
161954
161953
161948
162003
162015
162013
162022
161994
162020
162003
162068
162136
162153
162167
162095
162061
162050
162034
162081
162032
162078
162073
162102
162162
162152
162132
162165
162221
162187
162157
162175
162180
162229
162189
162189
162200
162222
162213
162207
162244
162237
162221
162204
162263
162323
162328
162287
162199
162259
162234
162158
162176
162245
162373
162379
162333
162253
162208
162170
162147
162221
162251
162299
162385
162373
162334
162320
162275
162226
162223
162293
162301
162243
162239
162231
162302
162338
162309
162295
162242
162209
162294
162335
162374
162399
162469
162407
162324
162375
162373
162370
162420
162424
162450
162498
162557
162536
162451
162518
162607
162528
162496
162490
162507
162435
162327
162222
162121
162115
162012
161961
162048
162099
162188
162249
162206
162204
162136
162156
162235
162278
162351
162305
162387
162523
162543
162487
162382
162401
162541
162558
162529
162568
162732
162743
162678
162581
162566
162576
162571
162576
162574
162617
162671
162678
162663
162622
162531
162580
162604
162598
162631
162590
162625
162670
162686
162627
162582
162582
162607
162644
162702
162676
162748
162806
162775
162888
162847
162779
162697
162679
162741
162793
162820
162827
162840
162801
162758
162781
162732
162698
162768
162730
162801
162920
162876
162856
162741
162802
162811
162734
162838
162814
162847
162955
162975
162963
162882
162942
162947
162943
162959
162904
162921
162936
163014
163070
162942
162922
162964
162946
162979
163015
163069
163076
163098
163042
162953
163039
163004
162925
162992
163053
163144
163124
163119
163079
162985
162997
163048
162979
162972
162907
163085
163129
163198
163211
163039
162985
162969
162975
162991
163059
163080
163063
163028
162987
162956
162995
163100
163046
163055
163031
163090
163072
163058
163048
162977
162987
162929
162943
162991
162951
162984
163018
162991
162980
162961
162920
162885
162926
163005
163099
163115
163019
162968
162933
162932
163049
163066
163095
163058
163035
163104
163081
163135
163083
163080
163116
163077
163078
163046
163050
163123
163097
163119
163182
163074
163048
163059
162991
163026
163059
163210
163252
163280
163227
163036
162983
163108
163194
163284
163243
163272
163254
163281
163261
163182
163204
163215
163243
163243
163196
163231
163250
163234
163140
163082
163133
163172
163194
163244
163218
163198
163233
163275
163331
163205
163142
163156
163082
163107
163176
163294
163321
163243
163169
163135
163172
163218
163168
163249
163204
163234
163254
163168
163224
163221
163215
163293
163293
163300
163281
163335
163322
163279
163307
163255
163202
163198
163198
163198
163251
163331
163314
163290
163345
163252
163198
163211
163238
163265
163294
163309
163293
163335
163309
163241
163184
163161
163131
163232
163301
163320
163264
163366
163371
163318
163304
163236
163252
163324
163330
163351
163284
163304
163324
163314
163361
163326
163334
163333
163306
163308
163288
163296
163344
163246
163219
163230
163293
163352
163311
163323
163264
163184
163187
163239
163366
163344
163295
163301
163315
163405
163416
163383
163292
163231
163250
163307
163356
163429
163493
163558
163458
163422
163434
163334
163362
163362
163354
163318
163344
163455
163386
163474
163462
163352
163352
163336
163312
163309
163312
163387
163348
163397
163491
163465
163497
163506
163475
163397
163380
163456
163497
163522
163515
163493
163503
163478
163480
163497
163493
163520
163544
163562
163549
163436
163494
163472
163429
163333
163344
163499
163647
163600
163572
163484
163528
163556
163532
163468
163463
163487
163442
163490
163520
163403
163508
163638
163682
163718
163652
163648
163628
163577
163565
163537
163537
163558
163628
163701
163610
163593
163644
163618
163621
163542
163598
163623
163537
163524
163495
163505
163644
163693
163662
163606
163610
163536
163549
163528
163517
163606
163656
163709
163640
163496
163531
163698
163815
163791
163686
163759
163765
163753
163751
163708
163670
163705
163693
163663
163547
163557
163637
163702
163761
163717
163651
163645
163603
163633
163666
163713
163758
163663
163688
163716
163731
163808
163823
163759
163741
163753
163710
163710
163803
163780
163805
163937
163893
163814
163789
163848
163867
163873
163845
163734
163663
163649
163639
163681
163747
163871
163880
163889
163832
163814
163833
163835
163799
163752
163751
163857
163865
163845
163846
163766
163878
163854
163856
163852
163831
163854
163933
163990
163983
163908
163873
163864
163904
163980
164020
164039
164009
164005
164047
164005
163928
163966
164037
164085
164077
164180
164241
164207
164211
164098
164125
164062
163933
163871
163815
163760
163715
163699
163876
163761
163728
163777
163722
163746
163748
163789
163778
163792
163826
163818
163914
164018
164048
164015
164028
164100
164136
164066
164065
164026
164020
164069
164138
164116
164084
164057
164120
164159
164180
164158
164143
164119
164142
164173
164169
164245
164181
164121
164111
164080
164118
164110
164136
164174
164200
164262
164304
164280
164237
164199
164197
164120
164146
164160
164138
164147
164206
164281
164248
164222
164196
164185
164199
164147
164124
164211
164224
164200
164281
164302
164221
164183
164158
164189
164264
164271
164348
164306
164319
164292
164319
164340
164284
164325
164270
164367
164387
164371
164319
164298
164387
164363
164290
164253
164206
164240
164291
164294
164364
164339
164366
164397
164341
164307
164297
164410
164424
164420
164378
164379
164395
164347
164309
164391
164394
164401
164415
164487
164492
164398
164369
164302
164322
164320
164283
164378
164347
164307
164338
164301
164275
164343
164385
164315
164270
164339
164368
164392
164263
164192
164198
164113
164075
164142
164199
164322
164358
164294
164277
164201
164150
164161
164156
164219
164230
164275
164268
164249
164258
164141
164154
164176
164165
164196
164241
164268
164275
164283
164223
164227
164243
164202
164193
164157
164190
164293
164301
164274
164195
164159
164200
164221
164308
164266
164163
164288
164297
164206
164176
164121
164192
164276
164341
164300
164232
164316
164360
164373
164374
164344
164314
164209
164168
164138
164088
164118
164194
164325
164349
164282
164327
164245
164183
164161
164172
164198
164253
164247
164253
164279
164247
164257
164213
164147
164098
164217
164146
164067
164100
164159
164311
164366
164331
164225
164127
164235
164248
164191
164234
164185
164168
164147
164162
164209
164166
164209
164264
164272
164249
164217
164137
164081
164080
164134
164048
164064
164121
164209
164308
164254
164202
164219
164246
164253
164188
164232
164312
164322
164312
164283
164223
164195
164222
164271
164304
164354
164283
164254
164279
164209
164282
164297
164333
164323
164273
164304
164263
164231
164234
164253
164236
164204
164241
164217
164142
164208
164339
164282
164282
164274
164391
164393
164238
164155
164177
164299
164367
164399
164362
164240
164284
164321
164379
164366
164286
164265
164313
164356
164334
164352
164318
164270
164237
164218
164200
164226
164296
164348
164373
164311
164294
164268
164267
164243
164171
164281
164364
164463
164506
164443
164393
164349
164352
164387
164401
164413
164383
164420
164441
164425
164430
164398
164391
164389
164308
164305
164366
164382
164381
164396
164426
164443
164335
164308
164285
164335
164406
164463
164447
164374
164314
164329
164387
164389
164369
164379
164397
164411
164424
164447
164391
164340
164267
164244
164266
164358
164522
164537
164451
164420
164396
164348
164325
164264
164185
164196
164367
164342
164336
164406
164481
164528
164504
164482
164378
164431
164435
164422
164366
164419
164480
164395
164421
164405
164340
164390
164425
164418
164472
164428
164350
164303
164347
164432
164483
164521
164563
164501
164459
164417
164457
164427
164408
164395
164463
164587
164550
164417
164424
164459
164512
164469
164472
164436
164357
164457
164504
164574
164564
164559
164584
164469
164486
164510
164440
164501
164539
164568
164554
164494
164532
164464
164448
164428
164420
164522
164601
164625
164624
164505
164519
164493
164490
164523
164488
164531
164517
164524
164580
164584
164603
164570
164570
164577
164580
164568
164584
164537
164616
164603
164659
164660
164570
164471
164450
164487
164517
164545
164496
164496
164585
164566
164557
164526
164443
164510
164554
164533
164543
164513
164465
164436
164443
164451
164348
164378
164518
164610
164523
164617
164616
164525
164520
164566
164563
164589
164613
164639
164609
164609
164661
164623
164646
164696
164695
164720
164665
164630
164586
164578
164631
164573
164540
164477
164301
164278
164245
164261
164249
164249
164304
164271
164342
164304
164208
164258
164345
164440
164484
164490
164524
164564
164583
164550
164454
164496
164625
164540
164568
164544
164619
164617
164564
164594
164532
164583
164622
164653
164601
164557
164518
164564
164632
164583
164535
164553
164566
164578
164666
164552
164546
164442
164412
164483
164513
164583
164648
164659
164636
164690
164738
164587
164497
164531
164507
164502
164475
164539
164558
164549
164622
164597
164627
164630
164548
164504
164524
164581
164614
164557
164543
164553
164523
164504
164538
164642
164630
164611
164633
164609
164567
164531
164453
164469
164547
164553
164653
164646
164717
164703
164616
164573
164534
164570
164528
164494
164607
164716
164687
164669
164662
164621
164572
164522
164547
164559
164600
164693
164642
164633
164670
164581
164622
164637
164596
164595
164564
164592
164610
164570
164588
164542
164447
164411
164384
164416
164488
164535
164577
164500
164486
164452
164404
164323
164281
164323
164430
164391
164299
164320
164456
164424
164363
164414
164250
164219
164269
164300
164281
164255
164268
164234
164269
164371
164362
164323
164319
164345
164359
164321
164342
164277
164224
164232
164236
164229
164336
164342
164409
164317
164222
164193
164223
164191
164190
164262
164308
164375
164354
164321
164330
164269
164253
164233
164208
164190
164291
164320
164315
164352
164405
164397
164329
164243
164198
164245
164333
164278
164306
164327
164287
164270
164240
164174
164096
164170
164282
164296
164322
164296
164278
164231
164178
164167
164170
164203
164172
164217
164199
164123
164168
164151
164129
164143
164100
164074
164065
164075
164076
164058
164142
164136
164109
164152
164071
164053
164089
164126
164028
163959
164011
164089
164191
164161
164067
164038
164031
164042
164083
164052
164037
164019
164057
164071
164011
163973
164007
163992
164067
164166
164192
164100
164022
164031
163985
163973
164039
164081
164101
164108
164083
164024
163908
163862
163892
163971
164018
164109
164148
164071
164118
164138
164051
164051
164042
164006
164004
164004
164009
164070
164120
164088
163957
163928
163911
163929
163938
164018
164043
163968
164009
163996
163950
163950
163948
164005
164022
164041
164006
163942
163950
163945
163958
163960
163886
163890
163933
164048
164096
163981
163975
163983
164057
164040
164033
163959
163933
163948
163998
163989
163989
163961
163886
163927
164001
164064
164059
164069
164057
164040
164067
164039
164018
163954
163871
163912
163961
163933
163957
164029
164038
163985
163928
163912
163856
163854
163914
164002
164039
164056
164124
164096
163994
163962
163928
163928
163962
164010
164018
163939
163911
163932
163961
164028
163961
163932
163996
163996
163980
163984
164022
164038
163981
163919
163832
163869
163869
163922
163992
164044
163960
163936
163851
163870
163738
163742
163874
164000
164034
163980
163969
163989
163963
163947
163937
163908
163908
163977
163982
163910
163948
164007
164036
163978
163869
163874
163843
163943
164007
164069
164126
164137
164070
164016
163907
163930
163963
164033
164050
164107
164170
164129
164130
164116
164023
164046
164068
164033
164052
164069
164121
164187
164142
164062
163967
164002
164035
164084
164137
164142
164097
164127
164169
164210
164177
164142
164077
164115
164091
164083
164112
164108
164153
164119
164020
164082
164043
164083
164173
164132
164121
164202
164144
164090
164063
164049
164075
164128
164099
164066
164170
164168
164081
164022
163990
164018
164030
164040
164142
164123
164189
164231
164196
164215
164207
164257
164293
164354
164386
164355
164340
164450
164353
164275
164202
164211
164094
164030
163987
163901
163915
163872
163794
163828
163769
163864
163902
163865
163873
163878
163950
163968
163884
163876
163918
163999
164085
164125
164198
164212
164191
164161
164171
164116
164087
164101
164144
164208
164255
164271
164351
164339
164308
164240
164179
164187
164163
164211
164310
164307
164295
164254
164260
164289
164301
164222
164160
164192
164185
164282
164419
164327
164215
164222
164187
164234
164237
164276
164263
164171
164195
164236
164320
164331
164246
164245
164260
164272
164356
164388
164416
164368
164334
164277
164221
164288
164316
164276
164271
164291
164355
164373
164336
164329
164308
164406
164343
164286
164371
164348
164379
164384
164321
164172
164157
164282
164324
164325
164403
164395
164382
164387
164376
164353
164369
164427
164387
164360
164355
164387
164438
164445
164512
164434
164384
164397
164315
164370
164398
164376
164288
164310
164359
164350
164331
164370
164383
164415
164410
164356
164312
164281
164292
164240
164201
164326
164304
164291
164328
164339
164341
164285
164218
164187
164160
164167
164190
164224
164183
164187
164289
164291
164254
164205
164158
164162
164110
164110
164156
164071
164132
164250
164290
164287
164161
164134
164098
164114
164171
164198
164313
164257
164181
164180
164138
164151
164105
164116
164215
164146
164203
164289
164264
164174
164064
164126
164138
164160
164254
164215
164170
164196
164151
164111
164030
164003
164084
164204
164245
164219
164273
164364
164368
164229
164177
164192
164253
164228
164234
164173
164252
164285
164214
164121
164086
164143
164194
164118
164164
164154
164087
164069
164114
164156
164163
164230
164187
164192
164200
164158
164187
164205
164219
164172
164098
164126
164078
164010
164087
164156
164138
164211
164246
164163
164142
164156
164112
164126
164172
164178
164181
164142
164131
164136
164082
164044
163989
163960
163996
164050
164181
164245
164164
164144
164098
164014
164061
164158
164149
164103
164054
164049
164045
164079
164034
164102
164089
164059
164097
164060
164096
164158
164207
164178
164068
164097
164036
164081
164129
164050
164117
164148
164157
164033
163953
163991
164045
164063
164032
164002
164028
164098
164142
164105
164035
164043
163988
163907
163966
164019
164046
164049
164136
164132
164116
164039
164032
164009
164004
163972
164013
164125
164196
164133
164004
164035
164067
164048
164085
164069
164139
164151
164049
164017
163975
164018
164061
164069
164072
164101
164077
164046
164051
164052
164052
164047
163988
163958
164065
164050
164124
164089
164132
164130
164053
164063
164031
164004
164107
164122
164102
164084
164111
164088
164046
164030
164009
164053
164080
164020
163981
164033
164136
164120
164061
164083
164011
164000
164047
164047
164125
164232
164216
164171
164090
164122
164161
163996
164011
164055
164108
164111
164076
164076
164036
164058
164067
164054
164105
164151
164150
164088
164122
164090
164109
164170
164157
164086
164126
164112
164138
164150
164142
164066
164023
164074
164109
164181
164244
164175
164142
164170
164201
164181
164074
164089
164062
164108
164172
164158
164122
164141
164154
164117
164102
164160
164162
164097
164141
164087
164141
164180
164148
164162
164183
164204
164128
164107
164092
164152
164193
164174
164185
164180
164098
164154
164205
164138
164195
164215
164146
164111
164118
164095
164085
164125
164098
164078
164091
164118
164123
164199
164185
164142
164135
164120
164133
164073
164075
164105
164053
164071
164140
164218
164156
164150
164145
164184
164185
164150
164168
164158
164168
164248
164172
164129
164096
164079
164123
164170
164223
164106
164171
164211
164047
164044
164060
164081
164141
164147
164181
164171
164123
164111
164078
164094
164011
163950
164069
164174
164245
164289
164310
164175
164087
164167
164128
164051
164109
164147
164187
164249
164247
164278
164251
164192
164232
164234
164271
164269
164337
164362
164395
164394
164348
164280
164239
164191
164201
164130
164188
164137
164002
163902
163721
163723
163795
163752
163933
164012
163942
163975
164048
164022
163922
163975
163970
163949
163928
164043
164117
164121
164116
164131
164083
164134
164138
164162
164185
164218
164263
164246
164231
164227
164168
164153
164164
164151
164166
164194
164283
164235
164140
164184
164116
164126
164183
164142
164092
164098
164116
164154
164191
164133
164219
164199
164171
164110
164132
164181
164243
164156
164170
164148
164061
164082
164171
164169
164233
164207
164255
164301
164241
164176
164129
164130
164100
164096
164123
164116
164228
164304
164270
164261
164193
164259
164226
164240
164246
164199
164171
164207
164178
164144
164195
164316
164277
164255
164269
164273
164311
164393
164337
164339
164237
164261
164248
164308
164316
164259
164259
164327
164391
164371
164288
164240
164096
164130
164183
164286
164402
164428
164388
164401
164265
164249
164254
164263
164173
164186
164311
164259
164310
164379
164291
164231
164229
164181
164133
164117
164242
164221
164204
164245
164174
164145
164181
164165
164136
164124
164152
164127
164189
164155
164002
164041
164079
164086
164055
164078
164135
164107
164071
164052
164020
164080
164063
164050
164045
164057
164119
164117
164086
164093
164000
164043
164063
164020
164087
164121
164197
164186
164095
164130
164089
164043
164034
164040
164022
164031
164170
164141
164161
164171
164029
164011
164110
164072
164062
164063
164116
164172
164156
164212
164127
164092
164070
164079
164141
164092
164118
164162
164114
164102
164046
164040
164034
164056
164029
163979
164013
164020
164053
164125
164075
164074
164113
164078
164045
164034
164086
164050
164015
164000
163933
163957
163889
164045
164007
164050
164093
164083
164061
164007
163932
163895
163908
163987
163988
163950
164011
164048
164052
164073
163996
163988
163993
163897
163876
163921
164017
164070
164033
164054
163975
163883
163855
163932
164007
164035
164080
164067
164005
164003
163977
163926
163942
163949
163981
163986
164022
163976
163989
164033
163949
163944
163845
163855
163919
163973
164122
164129
164047
164006
163969
163874
163901
163890
163823
163833
163883
163940
163959
163907
163976
163999
163944
163879
163840
163810
163871
163760
163725
163787
163796
163834
163837
163860
163883
163932
163958
163935
163893
163887
163797
163783
163752
163822
163889
163843
163895
163936
163904
163872
163784
163764
163755
163771
163737
163640
163672
163752
163803
163891
163865
163743
163752
163709
163690
163672
163721
163780
163865
163868
163826
163812
163851
163805
163713
163784
163879
163836
163846
163821
163784
163759
163764
163747
163723
163660
163742
163751
163683
163747
163786
163731
163599
163550
163599
163632
163784
163815
163791
163742
163734
163743
163671
163590
163542
163498
163546
163718
163763
163731
163594
163594
163595
163602
163592
163599
163611
163625
163613
163639
163620
163600
163537
163522
163559
163577
163626
163667
163623
163597
163552
163525
163505
163518
163538
163559
163720
163714
163706
163684
163617
163582
163587
163672
163613
163626
163653
163610
163638
163594
163576
163601
163584
163550
163656
163640
163665
163645
163675
163688
163656
163627
163649
163647
163603
163570
163631
163629
163622
163684
163667
163663
163661
163630
163661
163705
163705
163720
163698
163718
163772
163776
163671
163617
163641
163639
163684
163687
163663
163729
163754
163680
163707
163676
163588
163523
163596
163616
163603
163680
163718
163656
163591
163565
163538
163518
163545
163564
163601
163670
163659
163605
163573
163536
163507
163531
163588
163604
163546
163558
163572
163564
163611
163630
163584
163529
163583
163587
163542
163518
163447
163487
163533
163580
163617
163561
163606
163593
163737
163828
163822
163819
163808
163784
163677
163601
163657
163640
163685
163609
163455
163408
163313
163235
163269
163269
163339
163367
163367
163358
163407
163394
163366
163406
163387
163434
163508
163496
163492
163465
163460
163494
163545
163627
163711
163623
163676
163752
163754
163702
163640
163637
163654
163663
163702
163590
163642
163666
163696
163760
163700
163662
163589
163542
163578
163605
163678
163679
163694
163722
163641
163651
163668
163692
163654
163522
163543
163633
163624
163667
163782
163730
163653
163647
163672
163617
163632
163694
163712
163696
163628
163667
163688
163650
163620
163597
163689
163737
163789
163803
163739
163675
163654
163612
163662
163605
163601
163627
163736
163759
163642
163645
163599
163636
163743
163771
163764
163730
163698
163697
163716
163764
163731
163689
163657
163600
163676
163713
163753
163729
163702
163686
163607
163565
163627
163682
163771
163761
163768
163787
163686
163597
163590
163647
163746
163752
163728
163744
163707
163709
163702
163716
163612
163579
163581
163511
163550
163651
163723
163641
163522
163467
163435
163443
163487
163460
163422
163477
163490
163514
163450
163478
163413
163331
163330
163298
163475
163496
163422
163418
163470
163523
163519
163410
163298
163355
163397
163440
163484
163462
163415
163394
163377
163416
163430
163330
163384
163380
163466
163512
163484
163487
163456
163444
163447
163400
163416
163449
163416
163471
163462
163420
163478
163436
163486
163393
163437
163514
163558
163604
163519
163558
163455
163393
163385
163384
163561
163664
163573
163431
163424
163500
163505
163517
163536
163463
163446
163534
163532
163513
163450
163446
163428
163445
163433
163412
163462
163493
163453
163406
163399
163459
163456
163433
163507
163488
163512
163514
163488
163454
163428
163375
163407
163453
163410
163437
163470
163502
163573
163518
163526
163486
163413
163422
163431
163353
163398
163523
163536
163519
163434
163517
163500
163467
163417
163411
163519
163599
163515
163460
163503
163544
163455
163512
163524
163439
163494
163527
163479
163516
163484
163507
163499
163477
163566
163537
163496
163560
163582
163535
163517
163552
163551
163590
163590
163532
163528
163602
163609
163622
163565
163545
163491
163468
163480
163458
163525
163525
163519
163514
163436
163544
163638
163596
163529
163436
163478
163507
163531
163530
163541
163581
163590
163598
163568
163531
163648
163692
163566
163594
163547
163571
163519
163472
163492
163510
163557
163629
163633
163605
163518
163550
163557
163484
163495
163507
163546
163524
163556
163599
163542
163555
163487
163497
163513
163564
163628
163597
163649
163671
163600
163635
163594
163570
163589
163515
163511
163560
163640
163661
163590
163557
163456
163494
163550
163525
163538
163543
163532
163529
163482
163505
163474
163485
163574
163598
163628
163634
163601
163536
163479
163551
163558
163506
163511
163510
163484
163561
163638
163611
163533
163502
163504
163475
163493
163555
163593
163569
163614
163553
163609
163647
163601
163531
163550
163513
163428
163523
163603
163661
163572
163536
163507
163522
163469
163485
163515
163540
163596
163612
163559
163567
163532
163506
163448
163435
163474
163480
163463
163496
163601
163640
163599
163624
163580
163578
163567
163614
163625
163591
163475
163498
163502
163444
163484
163544
163589
163555
163567
163533
163552
163585
163548
163479
163470
163538
163510
163574
163617
163594
163610
163642
163676
163525
163448
163418
163459
163548
163603
163542
163557
163578
163549
163604
163595
163519
163505
163485
163480
163437
163409
163438
163375
163386
163529
163514
163380
163320
163375
163530
163565
163596
163575
163527
163436
163323
163279
163384
163489
163494
163525
163608
163598
163557
163542
163484
163518
163547
163563
163564
163517
163635
163664
163631
163623
163582
163586
163551
163504
163492
163413
163455
163457
163400
163239
163035
162996
163084
163110
163087
163112
163236
163233
163215
163220
163130
163185
163299
163327
163330
163352
163480
163540
163435
163402
163427
163470
163464
163454
163436
163404
163462
163476
163420
163400
163401
163470
163506
163568
163571
163446
163416
163434
163355
163259
163267
163365
163483
163550
163547
163516
163551
163536
163503
163442
163333
163314
163341
163396
163400
163504
163575
163554
163478
163394
163408
163470
163482
163501
163456
163451
163512
163509
163474
163503
163439
163456
163428
163449
163488
163470
163508
163515
163437
163416
163412
163374
163319
163352
163417
163384
163409
163516
163564
163627
163558
163533
163535
163558
163518
163429
163417
163431
163442
163435
163487
163549
163601
163594
163631
163585
163583
163562
163487
163439
163391
163466
163529
163536
163504
163475
163569
163593
163541
163497
163417
163429
163431
163440
163375
163391
163457
163490
163504
163431
163425
163444
163429
163421
163411
163403
163407
163442
163391
163298
163220
163263
163330
163396
163362
163333
163287
163299
163337
163355
163265
163228
163215
163245
163215
163210
163232
163346
163364
163261
163221
163290
163301
163242
163295
163285
163237
163181
163163
163216
163215
163257
163304
163343
163352
163268
163294
163276
163247
163251
163234
163219
163217
163152
163233
163172
163205
163272
163194
163143
163240
163358
163411
163375
163386
163340
163343
163293
163239
163167
163120
163154
163220
163378
163413
163408
163404
163397
163322
163230
163211
163281
163300
163301
163404
163329
163379
163369
163321
163296
163247
163213
163189
163203
163252
163301
163360
163331
163234
163197
163151
163181
163170
163238
163364
163332
163264
163310
163293
163233
163200
163233
163237
163284
163367
163255
163233
163216
163166
163169
163176
163255
163201
163234
163268
163230
163278
163303
163296
163292
163224
163233
163231
163280
163303
163307
163332
163367
163339
163195
163153
163176
163210
163282
163296
163359
163301
163278
163268
163244
163249
163255
163217
163241
163275
163225
163339
163380
163316
163234
163189
163216
163249
163313
163343
163333
163326
163376
163391
163345
163252
163247
163243
163318
163421
163360
163404
163353
163309
163295
163192
163185
163194
163304
163339
163237
163240
163268
163274
163270
163253
163308
163381
163346
163321
163300
163340
163351
163306
163269
163232
163278
163308
163285
163326
163336
163434
163480
163416
163368
163310
163353
163314
163340
163431
163354
163337
163311
163260
163281
163313
163368
163350
163335
163389
163344
163335
163374
163408
163407
163370
163422
163442
163458
163562
163528
163474
163437
163391
163317
163345
163403
163368
163376
163475
163498
163507
163512
163470
163432
163381
163327
163312
163338
163423
163439
163457
163484
163526
163476
163418
163422
163481
163487
163533
163425
163451
163524
163427
163428
163415
163420
163474
163454
163441
163373
163425
163449
163457
163468
163422
163430
163410
163443
163410
163393
163543
163540
163462
163414
163404
163429
163470
163516
163546
163515
163588
163601
163552
163549
163494
163446
163545
163583
163569
163535
163545
163560
163565
163528
163478
163515
163544
163573
163615
163550
163480
163564
163696
163659
163536
163571
163553
163557
163561
163539
163581
163594
163565
163589
163581
163621
163593
163583
163646
163603
163664
163644
163605
163622
163618
163684
163714
163659
163661
163642
163659
163626
163573
163549
163550
163670
163671
163618
163642
163609
163652
163715
163752
163726
163651
163609
163569
163620
163701
163783
163846
163804
163789
163751
163672
163639
163663
163690
163707
163624
163614
163643
163657
163637
163591
163602
163631
163693
163813
163811
163863
163788
163722
163639
163593
163649
163618
163693
163725
163729
163750
163783
163743
163690
163638
163694
163752
163767
163741
163721
163787
163764
163809
163799
163729
163736
163735
163771
163841
163809
163879
163882
163900
163949
163975
164002
163976
163945
163975
163931
163887
163867
163855
163789
163693
163637
163554
163477
163544
163621
163579
163528
163498
163436
163369
163423
163556
163564
163664
163674
163740
163757
163738
163672
163696
163772
163861
163904
163883
163906
163904
163884
163800
163712
163705
163761
163774
163873
163864
163821
163851
163780
163785
163767
163783
163900
163969
163860
163909
163968
163982
163933
163916
163877
163829
163914
163904
163872
163890
163888
163994
163972
163955
163880
163843
163891
163860
163865
163913
163813
163882
163889
163875
163861
163757
163764
163788
163794
163850
163899
163902
163925
163914
163845
163741
163790
163885
163860
163867
163985
164012
164010
164084
164036
163925
163893
163904
163857
163852
163866
163937
163932
163963
163998
163884
163903
163871
163872
163941
163915
163911
163976
163933
163870
163799
163911
163937
163902
163906
163947
163930
163885
163967
163984
163898
163919
163968
163909
163925
163877
163917
163980
163930
163863
163847
163868
163810
163815
163824
163755
163789
163756
163843
163810
163751
163745
163754
163688
163833
163870
163820
163789
163834
163809
163691
163699
163744
163700
163685
163630
163621
163653
163681
163636
163636
163711
163733
163711
163651
163743
163762
163755
163766
163694
163559
163533
163580
163563
163619
163643
163644
163661
163682
163644
163603
163603
163630
163628
163673
163672
163668
163668
163675
163651
163594
163606
163552
163523
163493
163467
163541
163630
163698
163667
163578
163652
163676
163656
163621
163598
163682
163650
163618
163510
163418
163521
163467
163417
163423
163483
163639
163628
163604
163570
163488
163494
163439
163401
163455
163428
163485
163494
163417
163368
163446
163508
163491
163419
163407
163432
163457
163476
163441
163346
163272
163309
163416
163375
163340
163389
163381
163394
163401
163404
163366
163398
163403
163349
163463
163426
163380
163381
163374
163368
163342
163378
163394
163418
163378
163438
163409
163421
163425
163450
163387
163362
163297
163311
163345
163309
163407
163460
163417
163350
163315
163334
163364
163346
163265
163251
163310
163346
163395
163425
163382
163296
163321
163310
163307
163268
163319
163429
163450
163379
163321
163315
163372
163292
163322
163321
163333
163363
163379
163316
163212
163237
163290
163346
163378
163385
163365
163350
163296
163299
163230
163239
163257
163272
163256
163261
163246
163256
163289
163282
163236
163273
163251
163206
163197
163187
163310
163293
163315
163313
163308
163300
163245
163239
163291
163284
163235
163240
163254
163251
163165
163148
163232
163322
163316
163277
163256
163355
163422
163271
163216
163297
163234
163175
163212
163301
163336
163337
163358
163330
163309
163271
163236
163266
163272
163221
163247
163265
163270
163283
163300
163399
163299
163249
163296
163229
163279
163264
163291
163301
163218
163227
163204
163154
163198
163277
163455
163411
163379
163364
163309
163346
163282
163218
163207
163158
163284
163328
163280
163304
163232
163244
163310
163354
163403
163313
163309
163305
163280
163288
163251
163227
163225
163216
163242
163246
163314
163303
163312
163336
163260
163344
163300
163244
163249
163270
163327
163335
163263
163278
163211
163207
163219
163271
163335
163343
163330
163308
163310
163309
163300
163331
163340
163382
163368
163251
163273
163318
163323
163301
163218
163234
163281
163232
163241
163241
163317
163399
163400
163376
163311
163274
163228
163233
163220
163223
163259
163255
163298
163305
163181
163228
163195
163218
163282
163237
163282
163266
163261
163272
163104
163102
163101
163154
163221
163165
163169
163196
163171
163212
163180
163138
163216
163249
163236
163195
163174
163209
163255
163276
163260
163223
163182
163203
163342
163322
163307
163303
163256
163191
163118
163186
163189
163135
163039
162959
162897
162807
162738
162804
162773
162782
162788
162801
162800
162921
162959
162915
162908
162956
162902
162929
163016
163045
163046
163112
163185
163220
163317
163230
163108
163078
163086
163121
163067
163031
163101
163163
163175
163194
163108
163098
163053
163029
163135
163135
163174
163264
163276
163233
163139
163131
163129
163145
163139
163079
163114
163112
163105
163216
163178
163102
163208
163208
163112
163087
163135
163205
163276
163227
163201
163265
163294
163257
163179
163132
163179
163193
163162
163101
163139
163164
163214
163248
163155
163060
163172
163210
163181
163192
163194
163232
163296
163277
163256
163219
163259
163220
163240
163187
163137
163159
163175
163134
163149
163179
163302
163371
163315
163251
163145
163168
163196
163180
163211
163264
163334
163288
163224
163193
163176
163282
163295
163364
163412
163336
163347
163267
163297
163344
163293
163227
163185
163192
163149
163153
163275
163297
163339
163290
163131
163101
163144
163104
163094
163034
163060
163081
163088
163190
163185
163190
163194
163114
163000
163004
163045
163040
163084
163107
163102
163166
163116
163138
163124
162972
163037
163105
163136
163168
163043
163062
163050
162976
162981
162973
162995
163068
163023
162977
162942
162910
162895
162951
163036
163030
163167
163164
163035
163036
162998
163079
162975
162923
162958
162990
163106
163162
163201
163142
163135
163137
163072
163054
163006
163062
163038
163091
163098
163051
163035
163018
163022
162966
162961
163017
163128
163126
163105
163124
163106
163098
163088
163034
163039
163006
163049
163055
163052
163080
163043
163030
163052
163117
163054
162956
162985
163020
163025
163020
163140
163057
163045
163009
163000
163014
163058
163065
163047
163049
162961
162973
162995
162977
162906
162849
162958
163072
163101
163095
163075
163053
163007
162998
162992
162935
163028
163043
163034
163053
162992
162933
162947
162983
162988
162883
162963
163021
163046
163070
163011
162993
162987
163001
163001
163010
163049
163012
162992
163028
163025
163030
162955
162934
162885
162806
162883
162912
162919
162978
163043
163020
163008
163033
162949
162840
162948
163061
163135
163128
163090
163062
163034
162936
162998
162953
162984
163034
163064
163021
162977
162974
162974
162986
162968
162895
162949
162995
163028
162996
163013
163020
163005
162979
162925
162921
162962
162977
162974
162945
162923
162952
162981
163066
163045
162994
162999
162991
162979
162987
162942
162950
162933
162921
162923
162855
162911
162973
163036
163027
163051
163024
162936
162887
162929
162895
162969
163040
163048
163095
163059
162976
162910
162856
162872
162812
162895
163058
163037
162922
162889
162882
162917
163017
163088
162972
162954
163049
163059
163028
162954
162885
162824
162848
162970
163025
162974
162983
163034
162990
162909
162917
162902
163004
163055
162915
162955
162955
162964
162975
162959
162984
162940
162944
162930
162828
162909
162969
163004
162974
162998
162932
162870
162882
162983
163004
163038
163058
163100
163057
162968
163002
162963
162959
162958
162915
163028
163102
163063
163008
162939
162908
162893
162967
163017
162955
162956
162979
163090
163124
163072
163036
163010
162964
163002
162973
163010
163024
163093
163195
163168
163138
163111
163069
163023
162973
163030
163069
163087
163135
163111
163088
163073
163043
163046
163030
163013
163051
163079
163134
163095
163083
163141
163128
163080
163011
163004
162961
162959
163031
163031
163081
163052
163048
163102
163016
163026
163116
163137
163163
163094
163084
163078
163074
163039
162905
162950
162988
163065
163042
163068
163090
163080
163037
162991
162963
163053
163038
163008
162995
163008
163070
163070
163040
163078
163031
163060
163147
163177
163153
163225
163256
163194
163187
163133
163095
163121
163214
163211
163224
163108
162990
162908
162914
162875
162719
162691
162676
162658
162737
162730
162782
162777
162792
162815
162801
162851
162895
162914
162914
162894
162986
163055
163017
162990
162952
163018
163139
163162
163130
163064
163084
163041
163018
163079
163038
163035
163062
163047
163037
163067
163021
163008
163116
163013
162902
162998
163099
163102
163158
163074
163096
163069
163037
163094
163003
163071
163150
163116
162995
163021
163081
163065
163118
163135
163032
163069
163055
163090
163137
163093
163102
163100
163035
162974
162970
163150
163190
163148
163100
163059
163052
163050
163000
162942
162950
163032
163179
163165
163066
163062
163129
163070
163025
163060
163041
163081
163094
163092
163094
163125
163131
163072
163050
163117
163119
163054
163102
163116
163166
163167
163196
163104
163043
163046
163070
163131
163139
163091
163079
163054
163110
163115
163114
163101
162994
163010
163102
163085
163116
163055
163075
163035
163022
163030
162957
163022
163129
163088
163060
163078
163126
163075
163072
163041
163025
163036
163054
163059
163039
162981
162895
162796
162843
162901
162986
163038
162973
163007
162993
162942
163008
162965
162872
162910
162933
162872
162936
162954
162943
162967
163054
162978
162943
162918
162882
162826
162871
162954
162984
162951
162963
162929
162865
162815
162842
162866
162927
162990
163051
163043
163075
163013
162917
162853
162811
162831
162927
163031
162971
162963
162998
162943
162959
162964
162904
162885
162917
162947
162923
162895
163018
162966
162923
162935
162938
162883
162898
162991
162963
162923
162966
162920
162874
162870
162844
162873
162910
162935
162918
162853
162931
162980
163060
162952
162819
162817
162884
162917
162938
162889
162914
162858
162762
162801
162840
162858
162942
162985
162956
162918
162902
162875
162844
162852
162808
162803
162921
162912
162896
162781
162807
162895
162930
162911
162846
162848
162904
162952
162955
162891
162954
162892
162830
162799
162757
162791
162940
162921
162919
162906
162956
162900
162891
162855
162833
162823
162841
162868
162838
162846
162915
162905
162819
162840
162849
162827
162830
162843
162849
162754
162802
162807
162818
162900
162826
162909
162905
162785
162704
162742
162795
162855
162906
162906
162800
162771
162858
162938
162950
162903
162964
162922
162884
162867
162798
162809
162892
162921
162898
162847
162882
162943
162895
162881
162834
162794
162826
162892
162837
162804
162822
162866
162778
162745
162749
162806
162933
162944
162981
162934
162959
162895
162894
162849
162785
162792
162830
162953
162947
162871
162973
162985
162952
162863
162862
162869
162883
162899
162907
162899
162923
162831
162766
162871
162925
162888
162901
162876
162881
162852
162848
162800
162671
162735
162797
162885
162878
162898
162913
162850
162868
162902
162922
162915
162866
162867
162871
162875
162915
162863
162925
162905
162852
162827
162769
162814
162888
162866
162878
162803
162839
162874
162856
162915
162818
162827
162852
162848
162901
162847
162847
162811
162832
162812
162809
162864
162883
162880
162841
162840
162885
162872
162810
162830
162841
162834
162839
162872
162929
162862
162852
162831
162779
162768
162817
162827
162762
162841
162979
162952
162905
162854
162835
162814
162776
162730
162781
162832
162780
162729
162846
162928
162853
162765
162741
162844
162877
162918
162947
162874
162902
162896
162836
162834
162789
162824
162822
162818
162758
162726
162786
162839
162838
162831
162762
162811
162844
162843
162763
162724
162802
162847
162796
162775
162790
162830
162794
162810
162789
162768
162766
162722
162661
162679
162663
162694
162690
162752
162802
162737
162749
162672
162655
162692
162725
162759
162733
162726
162735
162745
162695
162662
162666
162638
162555
162637
162586
162749
162762
162719
162819
162851
162857
162883
162862
162930
162889
162947
162943
162844
162892
162922
162852
162842
162768
162608
162552
162591
162584
162568
162517
162426
162404
162400
162387
162393
162390
162423
162440
162370
162392
162513
162532
162634
162670
162685
162715
162703
162746
162741
162696
162717
162720
162774
162705
162736
162676
162620
162712
162700
162790
162889
162848
162792
162710
162769
162721
162758
162778
162775
162778
162703
162581
162588
162692
162748
162830
162856
162885
162830
162764
162774
162758
162789
162777
162711
162671
162704
162742
162682
162802
162838
162851
162799
162692
162721
162738
162718
162689
162677
162686
162732
162748
162793
162722
162780
162746
162734
162750
162786
162757
162755
162714
162650
162574
162604
162702
162741
162773
162727
162778
162805
162753
162679
162619
162632
162667
162696
162695
162676
162704
162675
162720
162740
162656
162593
162552
162672
162762
162784
162704
162636
162596
162587
162540
162612
162641
162687
162676
162626
162576
162653
162616
162598
162599
162648
162709
162662
162669
162594
162642
162655
162580
162565
162511
162499
162500
162533
162494
162421
162507
162552
162520
162448
162433
162444
162410
162493
162507
162434
162444
162446
162484
162479
162523
162606
162524
162546
162596
162505
162485
162497
162487
162507
162430
162436
162503
162543
162560
162471
162495
162533
162501
162480
162515
162505
162459
162429
162526
162511
162516
162523
162467
162417
162420
162452
162466
162616
162691
162602
162611
162629
162628
162607
162516
162538
162539
162507
162575
162628
162685
162631
162602
162554
162422
162458
162527
162591
162613
162597
162624
162595
162582
162577
162508
162515
162503
162480
162539
162524
162514
162468
162519
162544
162495
162482
162522
162477
162547
162543
162569
162516
162560
162577
162509
162519
162554
162551
162518
162525
162512
162563
162557
162476
162391
162481
162526
162522
162494
162448
162544
162492
162592
162584
162520
162537
162503
162457
162453
162421
162484
162522
162525
162495
162424
162404
162357
162426
162525
162551
162578
162607
162633
162555
162430
162406
162426
162501
162537
162466
162493
162546
162558
162550
162502
162460
162410
162428
162519
162486
162508
162492
162435
162399
162380
162437
162403
162346
162376
162335
162352
162357
162470
162446
162353
162367
162416
162429
162503
162466
162443
162497
162499
162482
162370
162327
162287
162375
162486
162477
162481
162517
162524
162447
162334
162378
162427
162472
162457
162471
162462
162446
162365
162359
162431
162446
162435
162341
162385
162380
162434
162452
162407
162351
162302
162339
162334
162318
162316
162341
162526
162628
162591
162570
162421
162380
162391
162398
162458
162475
162469
162439
162424
162376
162402
162422
162360
162460
162506
162468
162435
162401
162370
162347
162355
162401
162403
162390
162419
162393
162462
162491
162514
162420
162271
162240
162316
162357
162423
162385
162382
162409
162522
162499
162436
162434
162397
162367
162373
162323
162409
162436
162453
162477
162357
162374
162434
162394
162431
162385
162375
162374
162449
162462
162365
162329
162320
162282
162351
162337
162379
162423
162478
162489
162408
162456
162413
162386
162460
162372
162427
162481
162426
162415
162328
162380
162498
162517
162499
162438
162475
162485
162547
162560
162437
162446
162448
162498
162506
162371
162381
162462
162544
162545
162468
162421
162403
162419
162413
162378
162433
162505
162566
162566
162463
162474
162464
162426
162374
162399
162437
162426
162350
162267
162242
162346
162445
162404
162382
162479
162479
162504
162486
162408
162338
162360
162337
162350
162392
162311
162337
162352
162324
162336
162353
162397
162407
162425
162498
162475
162454
162464
162473
162487
162451
162517
162551
162491
162508
162478
162546
162523
162501
162456
162272
162204
162197
162120
162055
162006
162050
162055
162125
162108
161982
161966
162046
162109
162177
162231
162262
162376
162345
162283
162217
162296
162303
162323
162314
162351
162404
162432
162396
162374
162306
162324
162334
162335
162357
162393
162492
162459
162407
162359
162373
162422
162407
162339
162414
162404
162488
162453
162368
162355
162294
162329
162405
162377
162391
162361
162419
162398
162394
162448
162429
162355
162356
162345
162354
162392
162476
162439
162435
162414
162361
162327
162366
162447
162483
162390
162426
162425
162426
162442
162392
162374
162369
162394
162412
162401
162495
162454
162475
162359
162261
162317
162362
162354
162486
162493
162512
162486
162521
162534
162480
162506
162424
162405
162422
162410
162448
162428
162419
162375
162314
162339
162352
162394
162473
162546
162526
162501
162455
162435
162399
162412
162342
162352
162375
162396
162466
162472
162496
162494
162424
162475
162461
162447
162431
162441
162455
162431
162399
162402
162335
162364
162339
162332
162337
162344
162342
162404
162418
162371
162270
162284
162329
162355
162360
162344
162344
162320
162340
162393
162251
162229
162260
162258
162271
162316
162356
162430
162393
162325
162213
162230
162213
162176
162258
162278
162354
162387
162387
162339
162311
162299
162265
162240
162237
162244
162285
162314
162336
162245
162160
162287
162340
162305
162351
162334
162365
162351
162341
162361
162338
162324
162296
162246
162293
162241
162317
162340
162295
162325
162282
162262
162287
162278
162299
162251
162337
162324
162279
162292
162176
162190
162259
162280
162273
162286
162338
162317
162260
162270
162277
162305
162285
162300
162308
162273
162294
162331
162306
162245
162260
162285
162295
162287
162277
162215
162259
162313
162309
162266
162234
162265
162266
162226
162227
162256
162330
162357
162331
162276
162248
162235
162237
162214
162278
162260
162248
162333
162311
162328
162296
162270
162249
162252
162289
162262
162239
162237
162244
162260
162238
162221
162198
162235
162290
162237
162322
162350
162355
162356
162254
162221
162246
162172
162202
162269
162328
162319
162255
162189
162075
162101
162191
162230
162349
162406
162326
162306
162319
162246
162170
162217
162247
162212
162195
162178
162296
162303
162322
162274
162186
162218
162278
162275
162268
162181
162215
162258
162334
162303
162213
162198
162231
162161
162143
162126
162235
162266
162242
162267
162212
162209
162155
162168
162215
162284
162247
162216
162183
162225
162279
162273
162220
162182
162173
162236
162320
162318
162273
162270
162212
162202
162209
162220
162214
162223
162346
162341
162262
162265
162150
162112
162116
162159
162178
162231
162275
162276
162269
162227
162146
162114
162146
162196
162164
162191
162266
162329
162322
162268
162226
162270
162222
162154
162168
162157
162226
162220
162192
162238
162178
162192
162101
162074
162109
162145
162198
162247
162229
162138
162079
162194
162181
162128
162127
162127
162168
162251
162308
162324
162228
162099
162136
162221
162241
162193
162202
162223
162185
162144
162096
162133
162202
162164
162183
162140
162077
162096
162136
162173
162158
162225
162209
162234
162260
162212
162260
162267
162222
162210
162158
162131
162141
162222
162191
162234
162273
162267
162220
162207
162127
162128
162148
162159
162144
162110
162146
162226
162264
162267
162172
162159
162150
162131
162107
162116
162158
162234
162266
162204
162154
162241
162218
162170
162122
162148
162195
162249
162271
162241
162181
162173
162069
162132
162147
162151
162167
162136
162078
162201
162177
162150
162164
162164
162110
162064
162071
162181
162196
162210
162168
162186
162187
162150
162113
162126
162167
162204
162216
162202
162103
162072
162102
162077
161994
162019
162145
162122
162182
162206
162096
162213
162236
162275
162212
162152
162221
162229
162234
162235
162341
162388
162305
162249
162172
162161
162188
162157
162041
162025
161907
161807
161718
161660
161718
161810
161839
161828
161830
161869
161812
161822
161812
161822
161816
161849
161965
162076
162095
162118
162049
161980
161955
162082
162157
162026
161971
162002
162018
162031
162065
162114
162164
162083
162030
162058
162181
162193
162149
162163
162068
162073
162091
162074
162088
162106
162131
162219
162154
162128
162047
162085
162091
162050
162015
162064
162173
162132
162192
162185
162127
162096
162085
162104
162045
162008
162077
162171
162266
162269
162177
162118
162147
162115
162079
162075
162126
162156
162172
162137
162005
162078
162142
162220
162160
162068
162162
162254
162162
162161
162165
162100
162071
161996
161987
162032
162216
162288
162284
162218
162138
162108
162144
162193
162176
162205
162253
162284
162301
162274
162184
162207
162217
162114
162068
162077
162157
162204
162222
162209
162168
162075
162084
162109
162157
162128
162131
162203
162192
162146
162048
162019
162002
162014
161959
161902
162068
162232
162209
162124
162037
162033
162073
162044
162018
161981
161929
161952
162018
162048
162073
162021
162007
162031
162012
161968
161992
161988
161990
161999
161893
161787
161787
161887
161932
161907
161946
161934
161927
161953
161928
161873
161801
161843
161826
161774
161923
161975
161884
161989
162024
162028
161956
161906
161878
161839
161892
161889
161853
161892
161834
161863
161907
161873
161887
161843
161925
161999
161995
161979
161905
161856
161845
161818
161888
161881
161883
161908
161878
161881
161829
161859
161919
161904
161843
161831
161886
161929
161937
161878
161821
161861
161862
161848
161843
161794
161895
161949
161885
161825
161808
161833
161888
161841
161817
161826
161839
161813
161814
161796
161765
161799
161763
161727
161693
161681
161784
161923
161859
161865
161819
161846
161861
161908
161875
161789
161781
161821
161801
161793
161785
161779
161760
161751
161758
161694
161697
161715
161788
161808
161768
161769
161756
161710
161732
161740
161804
161769
161815
161821
161777
161715
161797
161841
161822
161751
161841
161814
161801
161764
161765
161778
161708
161689
161676
161697
161769
161780
161738
161694
161724
161739
161760
161790
161692
161627
161644
161657
161682
161654
161598
161616
161604
161624
161725
161674
161661
161770
161754
161776
161757
161658
161613
161630
161660
161638
161682
161713
161715
161721
161674
161608
161611
161609
161620
161592
161649
161649
161706
161701
161629
161636
161637
161587
161575
161548
161577
161620
161686
161712
161614
161584
161684
161714
161575
161497
161578
161592
161661
161686
161624
161670
161726
161737
161688
161623
161642
161692
161743
161711
161635
161586
161593
161621
161612
161554
161603
161622
161582
161612
161620
161594
161470
161440
161485
161501
161526
161551
161640
161652
161591
161591
161603
161597
161575
161454
161496
161607
161629
161617
161564
161569
161616
161616
161590
161572
161636
161620
161536
161504
161493
161532
161536
161540
161561
161588
161624
161590
161586
161582
161522
161509
161470
161461
161506
161499
161537
161519
161511
161573
161638
161612
161601
161652
161708
161643
161653
161641
161579
161581
161602
161651
161656
161651
161698
161630
161624
161644
161646
161627
161544
161536
161575
161580
161589
161555
161581
161659
161624
161656
161647
161553
161440
161463
161511
161597
161714
161679
161691
161610
161608
161599
161553
161549
161563
161499
161499
161518
161508
161483
161531
161582
161546
161517
161531
161507
161536
161577
161540
161475
161503
161443
161334
161342
161440
161501
161585
161541
161570
161605
161515
161560
161513
161503
161500
161412
161448
161507
161565
161607
161529
161530
161529
161535
161566
161594
161656
161687
161677
161697
161625
161614
161508
161370
161388
161367
161320
161261
161212
161119
161130
161219
161181
161141
161132
161142
161248
161279
161388
161412
161397
161429
161326
161325
161372
161375
161487
161537
161553
161543
161499
161545
161524
161499
161494
161492
161473
161469
161451
161466
161470
161414
161376
161385
161419
161380
161487
161557
161549
161464
161503
161589
161608
161530
161535
161411
161434
161488
161474
161524
161474
161581
161518
161508
161530
161507
161536
161533
161561
161525
161518
161519
161487
161402
161317
161399
161459
161550
161687
161652
161498
161406
161373
161337
161401
161476
161546
161536
161573
161586
161526
161605
161603
161532
161479
161532
161500
161554
161536
161588
161559
161581
161544
161520
161505
161448
161456
161474
161470
161423
161353
161363
161542
161559
161629
161588
161563
161588
161604
161600
161584
161565
161492
161479
161494
161487
161494
161533
161558
161584
161601
161588
161546
161536
161573
161544
161495
161432
161475
161520
161491
161505
161471
161434
161378
161316
161373
161504
161515
161539
161532
161453
161362
161390
161358
161312
161327
161375
161420
161434
161370
161457
161478
161464
161412
161287
161360
161402
161361
161370
161362
161338
161363
161365
161404
161387
161362
161425
161452
161370
161327
161355
161317
161354
161309
161293
161385
161404
161431
161406
161359
161399
161392
161346
161331
161302
161283
161328
161356
161444
161470
161482
161458
161415
161359
161305
161364
161441
161443
161439
161423
161496
161509
161463
161389
161313
161358
161487
161505
161537
161533
161476
161415
161419
161443
161436
161468
161499
161549
161553
161501
161487
161492
161433
161410
161377
161387
161472
161509
161442
161412
161468
161490
161444
161479
161403
161407
161514
161590
161602
161482
161507
161557
161549
161516
161487
161584
161577
161543
161586
161606
161575
161526
161487
161500
161444
161468
161480
161459
161559
161563
161545
161548
161465
161428
161470
161595
161649
161625
161574
161515
161531
161502
161454
161592
161652
161657
161658
161626
161631
161606
161611
161570
161565
161572
161560
161582
161590
161651
161650
161582
161633
161643
161608
161572
161460
161458
161540
161571
161583
161678
161709
161641
161527
161460
161450
161577
161643
161682
161698
161697
161715
161669
161641
161670
161618
161576
161693
161747
161717
161701
161680
161670
161656
161698
161710
161726
161721
161722
161685
161613
161662
161666
161713
161721
161706
161742
161750
161681
161727
161715
161744
161653
161601
161675
161709
161752
161733
161704
161808
161815
161834
161867
161842
161812
161783
161751
161768
161886
161922
161842
161838
161792
161750
161841
161892
161919
161987
162014
161927
161821
161880
161829
161845
161823
161768
161797
161872
161827
161918
161926
161881
161851
161907
161926
161910
161957
161946
161928
161949
161922
161949
161933
161982
162006
161965
161897
161938
162033
162120
162016
161985
161966
161962
161958
161965
162007
162028
162055
162071
162128
162157
162144
162088
162011
162013
162082
162096
162121
162158
162128
162155
162119
162158
162140
162089
162122
162146
162204
162258
162243
162255
162212
162212
162197
162122
162181
162228
162327
162329
162284
162357
162356
162256
162249
162245
162263
162313
162341
162385
162453
162583
162485
162405
162399
162394
162356
162467
162472
162453
162418
162448
162424
162411
162422
162362
162378
162458
162461
162511
162444
162449
162435
162438
162451
162439
162440
162502
162576
162486
162425
162480
162527
162498
162559
162551
162524
162536
162630
162700
162668
162654
162671
162746
162726
162692
162689
162666
162770
162804
162799
162832
162805
162788
162820
162760
162800
162792
162762
162649
162568
162577
162507
162308
162266
162268
162348
162413
162440
162495
162500
162571
162581
162526
162545
162571
162633
162776
162827
162826
162807
162852
162839
162898
162824
162755
162794
162814
162830
162865
162858
162925
162911
162867
162852
162782
162831
162849
162916
163020
162997
163009
162983
162908
162880
162921
163054
163012
162987
162999
163043
163093
163121
163064
163006
162921
162985
163017
163022
163045
162997
163012
163048
163143
163106
163005
163047
163071
163091
163149
163121
163174
163177
163111
163049
163043
163088
163142
163198
163197
163226
163190
163213
163173
163141
163119
163081
163120
163202
163214
163193
163274
163304
163284
163217
163187
163209
163215
163328
163344
163268
163350
163359
163343
163360
163339
163302
163345
163431
163494
163457
163474
163479
163385
163306
163303
163295
163333
163453
163531
163391
163378
163477
163439
163412
163382
163427
163405
163508
163489
163386
163354
163313
163288
163322
163293
163339
163405
163491
163489
163420
163406
163415
163391
163414
163319
163260
163266
163359
163429
163453
163415
163438
163407
163388
163346
163381
163395
163363
163292
163328
163385
163455
163470
163363
163278
163319
163391
163405
163428
163357
163399
163387
163401
163359
163338
163385
163408
163438
163470
163429
163428
163412
163384
163351
163290
163316
163401
163392
163445
163444
163440
163456
163406
163349
163291
163296
163283
163329
163410
163352
163368
163363
163309
163238
163166
163194
163229
163232
163299
163273
163293
163252
163174
163154
163200
163260
163221
163261
163239
163155
163133
163137
163078
163142
163171
163239
163186
163313
163344
163294
163283
163264
163204
163152
163041
163059
163106
163146
163101
163134
163188
163210
163226
163210
163139
163127
163059
163044
163081
163009
163049
163128
163066
163002
162918
162923
162907
163004
163035
163030
163017
162994
162921
162935
162989
163037
163010
162981
162961
162946
162945
162968
162933
162856
162870
162982
162960
162959
162974
162980
162978
162954
162915
162849
162767
162793
162787
162771
162789
162788
162880
162907
162841
162764
162623
162633
162583
162599
162667
162668
162775
162789
162715
162619
162614
162593
162633
162678
162693
162657
162705
162695
162584
162518
162471
162515
162483
162481
162525
162509
162497
162577
162546
162543
162527
162503
162523
162521
162475
162412
162449
162408
162329
162357
162348
162424
162388
162374
162369
162280
162257
162343
162403
162409
162334
162346
162306
162259
162192
162181
162259
162242
162177
162209
162122
162048
162153
162164
162160
162146
162135
162119
162132
162055
162044
162073
162079
162017
162057
162014
161939
161929
161886
161768
161800
161876
161922
161971
161926
161869
161898
161929
161867
161779
161750
161751
161700
161697
161743
161716
161716
161705
161692
161634
161590
161557
161579
161548
161554
161491
161535
161642
161700
161536
161450
161518
161487
161474
161470
161354
161349
161358
161377
161406
161334
161379
161387
161318
161429
161437
161449
161425
161377
161312
161305
161314
161305
161328
161298
161190
161277
161312
161235
161171
161112
161238
161291
161167
161101
161084
161133
161170
161079
161041
161008
160976
160948
160974
161050
161073
161125
161174
161140
161059
160985
160945
160961
160909
160895
160895
160972
161000
160912
160938
160968
160987
160924
160901
160890
160861
160910
160958
160910
160800
160708
160762
160761
160748
160742
160746
160787
160790
160773
160700
160613
160551
160586
160565
160541
160519
160552
160511
160604
160613
160557
160528
160453
160376
160486
160552
160532
160570
160513
160434
160356
160399
160414
160426
160427
160330
160405
160435
160378
160318
160260
160300
160273
160302
160339
160350
160470
160521
160503
160497
160461
160497
160405
160264
160287
160254
160239
160186
160205
160078
159928
159885
159878
159838
159803
159763
159759
159789
159824
159800
159749
159743
159798
159885
159980
159889
159915
159931
159900
159817
159834
159903
159942
159965
159921
159800
159832
159867
159937
159852
159756
159712
159723
159799
159976
159984
159942
159914
159867
159753
159701
159771
159768
159743
159721
159677
159750
159813
159745
159716
159718
159755
159757
159786
159762
159723
159727
159699
159657
159653
159620
159577
159611
159588
159638
159618
159735
159755
159705
159633
159564
159606
159606
159606
159673
159577
159522
159682
159734
159597
159468
159513
159471
159524
159601
159637
159628
159638
159580
159570
159493
159504
159521
159556
159545
159527
159609
159558
159541
159543
159502
159533
159486
159480
159459
159461
159439
159442
159452
159509
159487
159467
159410
159365
159472
159520
159551
159528
159517
159500
159410
159392
159478
159505
159466
159455
159575
159501
159458
159432
159346
159306
159319
159383
159382
159426
159428
159444
159414
159358
159329
159316
159325
159285
159352
159338
159333
159287
159310
159293
159275
159267
159262
159244
159248
159235
159242
159268
159345
159406
159353
159376
159329
159286
159331
159366
159308
159247
159315
159300
159204
159227
159225
159225
159287
159360
159354
159308
159333
159276
159219
159204
159206
159219
159308
159301
159305
159309
159382
159270
159204
159258
159197
159168
159210
159178
159294
159315
159234
159239
159162
159192
159253
159271
159268
159264
159351
159349
159361
159280
159165
159216
159268
159222
159217
159214
159256
159202
159180
159202
159215
159243
159229
159213
159204
159226
159304
159224
159208
159194
159108
159150
159196
159243
159315
159300
159197
159192
159172
159174
159287
159292
159247
159180
159270
159259
159285
159335
159337
159260
159201
159180
159206
159206
159288
159274
159223
159261
159318
159269
159198
159230
159328
159285
159234
159245
159308
159310
159357
159329
159257
159191
159238
159283
159359
159345
159387
159371
159376
159342
159253
159206
159237
159248
159324
159313
159331
159424
159437
159373
159294
159288
159270
159267
159326
159253
159302
159399
159354
159350
159293
159250
159292
159375
159409
159354
159384
159409
159452
159337
159167
159216
159251
159293
159351
159370
159395
159407
159358
159303
159280
159289
159278
159256
159317
159395
159417
159419
159418
159428
159368
159446
159461
159397
159343
159283
159310
159398
159436
159343
159417
159467
159466
159488
159540
159446
159446
159392
159414
159368
159364
159382
159358
159391
159467
159494
159517
159467
159464
159405
159344
159398
159444
159385
159323
159373
159445
159388
159382
159405
159558
159526
159448
159416
159399
159420
159579
159582
159530
159522
159448
159438
159438
159408
159407
159403
159479
159481
159494
159490
159468
159432
159391
159403
159493
159461
159471
159472
159516
159601
159533
159535
159554
159508
159485
159439
159489
159534
159583
159556
159466
159520
159588
159661
159738
159751
159750
159712
159714
159731
159634
159567
159579
159615
159603
159604
159679
159657
159690
159688
159620
159604
159647
159616
159661
159667
159666
159690
159718
159776
159718
159715
159725
159734
159811
159781
159768
159778
159805
159768
159679
159679
159700
159790
159784
159719
159775
159721
159732
159748
159723
159712
159680
159648
159688
159735
159760
159818
159833
159773
159668
159607
159632
159605
159699
159712
159758
159777
159809
159836
159751
159786
159802
159715
159718
159754
159820
159858
159844
159808
159794
159860
159802
159866
159884
159861
159928
159933
159972
159985
160044
160060
160099
160017
159965
159957
159915
159812
159776
159726
159685
159589
159473
159407
159486
159533
159539
159525
159584
159588
159563
159601
159637
159663
159698
159765
159799
159851
159912
159938
159946
159959
159987
159990
160002
159935
159958
159942
159983
160005
159924
159959
159910
159936
159928
159938
160079
160075
160036
159956
159938
159974
159989
160020
160081
160023
160093
160191
160184
160065
160001
160104
160195
160208
160133
160077
160105
160082
160082
160176
160142
160189
160158
160090
160147
160143
160172
160201
160114
160107
160101
160076
160120
160104
160061
160109
160268
160367
160342
160334
160331
160314
160290
160263
160223
160260
160323
160277
160260
160320
160319
160277
160210
160231
160262
160261
160304
160372
160400
160430
160412
160376
160324
160278
160197
160213
160306
160387
160483
160549
160437
160359
160347
160318
160376
160398
160367
160398
160493
160487
160403
160378
160370
160377
160362
160399
160511
160543
160467
160474
160359
160351
160398
160409
160443
160373
160421
160431
160419
160397
160313
160263
160269
160277
160326
160262
160361
160421
160459
160438
160389
160393
160341
160317
160286
160240
160300
160378
160440
160452
160416
160421
160402
160439
160481
160461
160522
160514
160489
160446
160363
160335
160420
160415
160426
160470
160595
160576
160549
160550
160481
160513
160541
160549
160489
160495
160509
160454
160428
160484
160469
160427
160472
160582
160638
160616
160663
160697
160679
160716
160578
160560
160624
160641
160617
160613
160684
160688
160700
160712
160620
160589
160573
160559
160577
160631
160735
160733
160720
160732
160634
160697
160733
160712
160678
160632
160601
160598
160678
160752
160752
160687
160655
160712
160717
160751
160785
160796
160883
160818
160758
160781
160758
160697
160689
160722
160803
160842
160873
160857
160749
160766
160765
160756
160773
160807
160833
160788
160824
160799
160756
160731
160691
160700
160762
160755
160827
160888
160928
160958
160871
160873
160875
160890
160851
160823
160886
160816
160830
160931
160861
160877
160878
160848
160910
160971
160992
161004
160998
160877
160881
160947
160953
160875
160875
160841
160891
160906
160913
160895
160864
160814
160829
160895
160963
160924
160934
160964
160991
161052
161006
160939
160936
160888
160905
160871
160891
161015
161121
161176
161012
161013
161033
160999
160977
160968
160941
160888
160927
161025
161110
161062
161037
161035
161003
161009
161056
161048
161000
160973
160941
160950
161038
161097
161143
161102
161146
161142
161150
161167
161098
161041
161048
161045
161056
160998
161027
161076
161099
161096
161073
161085
161114
161168
161110
161035
161183
161205
161159
161211
161273
161284
161147
161088
161062
161010
161074
161174
161249
161256
161156
161198
161230
161213
161183
161158
161253
161242
161268
161235
161209
161209
161189
161140
161112
161123
161161
161265
161257
161273
161238
161227
161171
161207
161237
161182
161310
161335
161288
161254
161210
161176
161223
161219
161137
161223
161355
161330
161429
161458
161404
161418
161334
161289
161265
161249
161363
161360
161358
161358
161329
161316
161435
161420
161359
161291
161299
161365
161392
161429
161410
161410
161412
161315
161329
161324
161446
161503
161451
161431
161426
161421
161398
161398
161441
161393
161454
161488
161572
161554
161555
161486
161467
161483
161482
161449
161481
161502
161501
161491
161460
161466
161511
161470
161567
161547
161570
161612
161556
161575
161601
161605
161538
161577
161512
161439
161511
161554
161553
161515
161504
161533
161544
161476
161497
161417
161474
161568
161602
161629
161601
161591
161547
161604
161606
161580
161620
161669
161653
161647
161581
161571
161607
161590
161583
161574
161635
161772
161682
161633
161644
161782
161853
161846
161855
161818
161827
161845
161872
161870
161821
161784
161727
161739
161639
161588
161560
161499
161403
161346
161362
161403
161371
161386
161440
161402
161462
161498
161587
161677
161666
161691
161656
161657
161701
161679
161796
161827
161860
161889
161816
161815
161807
161733
161672
161681
161818
161894
161876
161877
161886
161916
161876
161882
161873
161786
161820
161854
161885
161834
161806
161838
161846
161865
161891
161845
161989
162087
162077
162006
161923
161930
161911
161936
161951
161888
161895
161872
161875
161930
161972
161936
161882
161926
161934
161916
162037
162121
162080
162008
161997
161991
161980
162037
161996
161975
161991
161975
161987
162095
162109
162031
162024
162052
162069
162036
162082
162099
162076
162084
162059
162077
162061
162028
162058
162025
162069
162107
162208
162234
162138
162146
162145
162124
162168
162106
162101
162130
162113
162122
162062
162091
162148
162164
162109
162114
162207
162251
162224
162141
162116
162227
162197
162125
162190
162214
162248
162229
162218
162200
162123
162130
162102
162023
162018
162019
162121
162158
162185
162161
162128
162082
162051
162019
162078
162057
162052
162104
162047
161993
162026
162051
162082
162097
162150
162201
162155
162117
162157
162200
162132
162105
162078
162015
162040
162084
162117
162085
162099
162142
162087
162119
162051
161994
162083
161997
162070
162167
162231
162124
162043
162093
162121
162053
162089
161992
162020
162055
162090
162129
162184
162204
162142
162142
162134
162073
162078
162066
161995
162036
162065
162028
162017
162088
162111
161988
162023
162052
162069
162067
162045
162016
162056
162065
162036
161962
161987
162016
162007
162041
162017
162032
162047
161994
161965
161927
161985
162045
162005
161962
161953
161928
161950
161984
161953
161899
161949
162000
162063
162064
162002
161984
161952
161947
161981
161936
161957
161956
161936
162005
161989
161992
162009
161958
161917
161865
161936
161913
161972
161991
161999
162034
162064
162059
162049
162013
161984
162017
162070
162094
162018
162002
162009
162009
162036
162017
162047
162117
162074
162039
162040
162105
162050
161927
161918
161913
161954
161989
162078
162216
162226
162147
162084
162062
162032
162019
162020
161997
162007
162063
162069
162091
162037
162010
161975
161955
161991
162096
162114
162066
162078
162069
161983
162031
162135
162118
162040
162059
162044
162067
162019
162071
162059
162080
162132
162155
162204
162117
162185
162233
162211
162210
162176
162149
162130
162145
162141
162203
162146
162167
162200
162160
162153
162134
162212
162187
162198
162213
162233
162225
162202
162221
162183
162158
162155
162233
162208
162237
162288
162384
162357
162314
162236
162234
162197
162083
162222
162309
162359
162382
162339
162347
162298
162247
162212
162199
162266
162372
162378
162316
162217
162216
162234
162243
162286
162325
162291
162346
162337
162306
162287
162322
162299
162285
162293
162251
162295
162243
162221
162300
162276
162358
162387
162288
162191
162146
162182
162408
162413
162346
162334
162392
162298
162231
162238
162150
162171
162231
162283
162334
162235
162208
162218
162237
162380
162331
162289
162378
162387
162337
162264
162249
162175
162147
162181
162210
162363
162480
162454
162422
162361
162408
162329
162285
162293
162303
162333
162382
162383
162346
162327
162393
162409
162375
162419
162309
162282
162307
162391
162396
162356
162338
162261
162261
162249
162234
162291
162294
162309
162308
162306
162412
162447
162376
162365
162256
162284
162337
162404
162348
162325
162397
162348
162312
162290
162284
162284
162307
162271
162262
162260
162328
162325
162272
162228
162197
162265
162326
162431
162355
162244
162289
162235
162262
162179
162178
162249
162274
162362
162377
162380
162419
162324
162313
162369
162383
162435
162515
162552
162569
162482
162408
162316
162356
162338
162282
162231
162170
162073
161988
161911
161942
161943
161963
161886
161903
161963
162038
162151
162153
162144
162222
162213
162238
162236
162271
162305
162312
162256
162225
162215
162328
162270
162267
162308
162283
162322
162357
162342
162346
162386
162463
162424
162384
162329
162250
162315
162325
162288
162248
162216
162314
162366
162364
162325
162304
162332
162288
162312
162312
162317
162356
162329
162326
162295
162221
162189
162197
162221
162326
162375
162451
162455
162348
162304
162361
162353
162378
162447
162395
162359
162383
162370
162364
162358
162320
162352
162411
162483
162411
162367
162359
162304
162300
162288
162332
162495
162514
162498
162437
162435
162469
162399
162318
162278
162254
162366
162441
162501
162482
162415
162447
162437
162426
162415
162347
162385
162401
162427
162453
162449
162496
162477
162395
162361
162339
162374
162385
162429
162447
162393
162381
162367
162416
162442
162284
162266
162350
162394
162346
162328
162343
162356
162319
162367
162361
162265
162247
162288
162279
162255
162286
162289
162220
162210
162195
162151
162226
162256
162235
162221
162309
162318
162354
162307
162269
162238
162273
162233
162163
162191
162307
162311
162280
162318
162297
162305
162272
162264
162205
162195
162253
162271
162287
162304
162297
162300
162334
162346
162324
162282
162387
162340
162287
162251
162178
162175
162232
162314
162303
162202
162221
162180
162216
162362
162416
162400
162429
162447
162431
162347
162341
162337
162309
162262
162216
162222
162280
162325
162327
162300
162290
162304
162294
162283
162273
162235
162207
162296
162341
162264
162357
162303
162230
162235
162195
162185
162210
162254
162378
162348
162325
162256
162280
162303
162263
162238
162265
162303
162312
162307
162350
162277
162231
162206
162140
162140
162131
162199
162226
162203
162303
162348
162261
162263
162269
162272
162307
162320
162300
162277
162371
162379
162337
162397
162353
162354
162395
162365
162404
162366
162389
162369
162385
162352
162305
162334
162369
162438
162418
162371
162370
162352
162362
162352
162323
162329
162403
162387
162340
162357
162414
162431
162397
162388
162374
162327
162336
162392
162437
162410
162448
162436
162350
162297
162258
162365
162404
162333
162353
162373
162478
162363
162368
162333
162297
162448
162486
162392
162359
162345
162319
162373
162333
162304
162336
162370
162444
162428
162477
162440
162405
162385
162349
162290
162282
162372
162431
162420
162430
162432
162413
162449
162414
162411
162352
162349
162363
162365
162372
162369
162457
162429
162435
162411
162445
162453
162445
162449
162503
162526
162488
162475
162439
162453
162441
162408
162379
162445
162477
162468
162531
162474
162425
162413
162394
162374
162342
162311
162391
162426
162468
162483
162521
162525
162406
162442
162478
162528
162548
162531
162514
162498
162456
162381
162329
162395
162462
162566
162617
162516
162542
162499
162431
162406
162388
162396
162413
162468
162477
162441
162494
162483
162426
162454
162440
162494
162546
162543
162531
162501
162548
162548
162493
162472
162462
162471
162494
162555
162500
162487
162521
162480
162501
162520
162483
162499
162495
162546
162571
162472
162450
162511
162526
162506
162455
162483
162505
162459
162437
162450
162514
162642
162631
162585
162531
162526
162553
162553
162520
162444
162464
162583
162535
162478
162425
162441
162453
162505
162587
162540
162588
162557
162494
162401
162380
162437
162537
162671
162616
162540
162487
162482
162464
162431
162356
162368
162382
162423
162460
162492
162575
162585
162571
162544
162484
162415
162448
162476
162486
162414
162496
162483
162475
162493
162466
162489
162458
162511
162550
162593
162744
162802
162769
162697
162622
162642
162593
162531
162490
162437
162407
162337
162288
162234
162177
162171
162153
162181
162194
162188
162200
162219
162263
162227
162194
162231
162356
162453
162535
162498
162505
162534
162493
162479
162418
162418
162445
162437
162460
162460
162567
162608
162605
162591
162521
162495
162469
162452
162502
162540
162589
162578
162541
162508
162406
162443
162477
162477
162522
162523
162637
162684
162584
162532
162462
162562
162567
162593
162639
162631
162629
162575
162540
162520
162537
162611
162565
162600
162647
162620
162647
162597
162507
162499
162489
162568
162598
162600
162579
162580
162662
162657
162648
162663
162622
162564
162547
162563
162554
162458
162511
162586
162702
162772
162690
162670
162708
162676
162663
162600
162598
162623
162606
162556
162537
162569
162590
162723
162723
162711
162698
162683
162664
162667
162569
162594
162684
162692
162736
162750
162744
162749
162759
162713
162649
162638
162551
162607
162714
162781
162794
162734
162636
162631
162661
162696
162678
162670
162656
162624
162678
162693
162665
162604
162515
162528
162503
162546
162571
162502
162575
162611
162614
162589
162519
162508
162506
162509
162531
162506
162610
162576
162552
162538
162481
162510
162479
162539
162577
162531
162548
162495
162489
162525
162507
162489
162531
162565
162576
162523
162507
162531
162571
162585
162533
162530
162475
162502
162506
162487
162540
162583
162560
162457
162445
162548
162549
162519
162539
162470
162543
162621
162513
162543
162512
162470
162463
162526
162625
162620
162697
162676
162626
162554
162455
162466
162532
162544
162584
162565
162543
162552
162549
162519
162436
162442
162476
162553
162588
162526
162532
162585
162536
162512
162452
162423
162448
162590
162664
162571
162546
162523
162469
162417
162410
162445
162507
162595
162591
162556
162586
162583
162509
162464
162414
162480
162539
162577
162604
162578
162558
162569
162554
162544
162529
162509
162484
162538
162548
162510
162525
162565
162578
162551
162474
162423
162427
162455
162518
162563
162584
162591
162508
162437
162377
162448
162545
162662
162577
162483
162545
162578
162567
162583
162515
162575
162538
162512
162604
162572
162572
162605
162588
162507
162452
162488
162496
162474
162548
162535
162497
162576
162598
162475
162510
162548
162549
162553
162553
162492
162504
162489
162434
162476
162495
162508
162482
162535
162592
162530
162605
162612
162542
162528
162475
162492
162477
162483
162553
162510
162494
162587
162635
162591
162563
162549
162537
162539
162590
162635
162598
162562
162535
162481
162449
162478
162549
162583
162560
162562
162618
162594
162646
162653
162563
162570
162546
162496
162523
162462
162551
162631
162547
162528
162606
162716
162702
162666
162715
162658
162664
162651
162644
162591
162470
162485
162457
162513
162629
162600
162575
162624
162658
162594
162513
162522
162510
162589
162666
162594
162657
162730
162684
162624
162535
162525
162558
162610
162661
162576
162627
162651
162626
162611
162546
162679
162661
162683
162659
162638
162628
162625
162630
162627
162558
162542
162555
162558
162646
162672
162761
162723
162663
162630
162583
162550
162598
162672
162692
162625
162625
162663
162612
162562
162576
162597
162646
162691
162779
162767
162731
162724
162728
162666
162513
162583
162579
162592
162669
162682
162752
162750
162812
162783
162652
162683
162693
162661
162686
162683
162676
162721
162807
162818
162625
162579
162591
162685
162756
162732
162762
162738
162697
162675
162640
162682
162637
162634
162655
162652
162657
162614
162693
162701
162625
162631
162631
162684
162757
162740
162715
162689
162642
162627
162546
162537
162588
162649
162668
162658
162672
162627
162645
162612
162503
162571
162688
162704
162673
162661
162686
162727
162818
162736
162688
162687
162709
162683
162710
162725
162844
162898
162847
162769
162759
162791
162857
162827
162821
162717
162649
162550
162526
162495
162335
162257
162325
162284
162367
162406
162416
162468
162464
162433
162430
162413
162462
162494
162561
162563
162623
162634
162673
162708
162642
162686
162696
162616
162614
162598
162646
162662
162709
162690
162655
162620
162616
162618
162720
162684
162636
162568
162605
162577
162637
162725
162781
162738
162725
162722
162746
162767
162710
162629
162551
162588
162646
162590
162658
162712
162697
162632
162624
162554
162472
162523
162590
162730
162772
162753
162789
162759
162738
162682
162569
162612
162603
162552
162628
162674
162659
162709
162636
162599
162601
162628
162584
162627
162689
162705
162746
162709
162708
162649
162559
162601
162655
162655
162642
162644
162642
162627
162657
162603
162598
162758
162815
162794
162779
162739
162696
162717
162713
162751
162715
162731
162721
162754
162857
162834
162771
162830
162840
162760
162700
162677
162711
162799
162785
162715
162733
162711
162689
162676
162608
162679
162726
162684
162663
162690
162729
162692
162691
162560
162531
162631
162631
162578
162613
162691
162736
162606
162646
162702
162567
162559
162586
162530
162569
162650
162678
162655
162584
162500
162423
162465
162484
162509
162481
162543
162575
162564
162593
162521
162412
162483
162455
162445
162489
162479
162520
162602
162576
162476
162476
162563
162566
162492
162465
162472
162501
162518
162519
162574
162614
162567
162512
162437
162537
162575
162575
162538
162538
162500
162440
162512
162554
162557
162567
162513
162513
162578
162543
162500
162500
162484
162450
162460
162494
162439
162486
162507
162549
162566
162436
162395
162428
162435
162497
162503
162526
162534
162443
162370
162337
162383
162359
162300
162380
162386
162429
162528
162571
162532
162461
162421
162346
162352
162451
162449
162418
162384
162410
162417
162414
162430
162494
162503
162473
162475
162499
162569
162578
162505
162388
162438
162445
162371
162339
162304
162386
162461
162622
162659
162579
162507
162487
162400
162450
162457
162506
162526
162470
162446
162407
162387
162444
162524
162528
162548
162539
162436
162401
162451
162559
162522
162564
162522
162476
162464
162450
162432
162501
162486
162528
162574
162551
162500
162520
162517
162509
162506
162611
162551
162480
162418
162470
162441
162490
162481
162530
162566
162569
162504
162459
162443
162462
162545
162555
162530
162458
162494
162592
162517
162412
162470
162503
162503
162440
162428
162475
162514
162535
162591
162584
162572
162547
162592
162575
162499
162518
162555
162487
162486
162505
162544
162595
162551
162486
162535
162618
162537
162552
162476
162325
162339
162423
162501
162484
162481
162532
162533
162517
162516
162414
162386
162412
162450
162475
162413
162458
162468
162635
162679
162495
162461
162496
162448
162447
162477
162514
162527
162541
162496
162420
162436
162456
162507
162490
162435
162489
162451
162498
162538
162491
162503
162507
162491
162488
162463
162492
162472
162494
162502
162409
162528
162545
162508
162533
162572
162614
162624
162555
162539
162448
162481
162533
162599
162615
162550
162534
162529
162543
162569
162574
162631
162617
162601
162596
162522
162622
162669
162666
162650
162596
162574
162578
162602
162615
162587
162616
162673
162680
162650
162589
162585
162618
162578
162588
162537
162571
162628
162672
162675
162602
162626
162580
162537
162495
162537
162612
162647
162701
162702
162610
162644
162645
162595
162555
162494
162580
162626
162630
162677
162640
162632
162592
162627
162670
162657
162707
162742
162669
162716
162712
162767
162766
162793
162762
162699
162733
162750
162718
162790
162712
162602
162427
162311
162253
162218
162310
162230
162348
162430
162400
162428
162441
162480
162369
162374
162495
162596
162620
162620
162575
162548
162601
162593
162538
162552
162661
162674
162668
162733
162642
162616
162571
162610
162643
162631
162710
162697
162741
162754
162676
162665
162696
162743
162697
162691
162738
162721
162762
162753
162679
162687
162753
162766
162689
162670
162717
162712
162670
162671
162722
162838
162760
162755
162684
162633
162693
162706
162762
162792
162717
162719
162747
162769
162777
162798
162799
162711
162728
162759
162733
162714
162717
162746
162714
162793
162870
162851
162803
162855
162779
162751
162744
162789
162797
162779
162854
162830
162742
162753
162713
162695
162715
162732
162795
162840
162820
162806
162786
162844
162798
162761
162758
162830
162856
162838
162950
162910
162859
162834
162790
162848
162838
162850
162791
162788
162828
162879
162869
162872
162777
162791
162755
162761
162747
162732
162787
162769
162895
162888
162762
162797
162712
162737
162728
162704
162672
162617
162624
162624
162581
162596
162636
162682
162661
162627
162681
162664
162677
162664
162634
162623
162625
162708
162702
162668
162621
162562
162669
162735
162639
162587
162595
162637
162622
162641
162717
162678
162671
162697
162643
162586
162568
162509
162455
162554
162693
162724
162733
162761
162658
162652
162651
162619
162605
162612
162693
162687
162649
162660
162671
162704
162659
162673
162636
162612
162639
162626
162614
162588
162610
162709
162723
162735
162762
162672
162693
162658
162645
162639
162619
162617
162578
162563
162605
162592
162591
162603
162688
162745
162657
162617
162590
162643
162610
162586
162653
162688
162692
162657
162556
162552
162524
162512
162464
162469
162645
162770
162776
162746
162668
162653
162708
162651
162592
162546
162563
162577
162633
162703
162638
162560
162549
162631
162683
162680
162728
162711
162708
162692
162629
162581
162543
162573
162609
162621
162651
162706
162701
162679
162630
162654
162656
162683
162691
162657
162715
162728
162719
162761
162725
162711
162726
162665
162652
162670
162694
162700
162703
162676
162659
162732
162761
162709
162696
162635
162685
162683
162648
162650
162584
162639
162682
162651
162651
162648
162678
162732
162729
162710
162702
162750
162711
162694
162674
162641
162685
162695
162710
162741
162672
162698
162669
162687
162677
162643
162740
162767
162789
162804
162712
162687
162680
162765
162822
162741
162773
162843
162852
162810
162734
162670
162654
162623
162727
162658
162762
162775
162729
162823
162787
162718
162742
162794
162821
162705
162713
162784
162898
162893
162759
162767
162792
162794
162774
162730
162745
162768
162791
162775
162713
162716
162747
162806
162790
162771
162852
162856
162837
162776
162690
162717
162660
162657
162705
162651
162672
162787
162824
162807
162739
162807
162786
162784
162763
162731
162771
162773
162786
162822
162784
162802
162767
162697
162644
162661
162730
162835
162894
162865
162823
162770
162764
162754
162795
162792
162803
162814
162792
162777
162741
162747
162767
162750
162699
162650
162777
162905
162872
162898
162812
162824
162815
162812
162853
162800
162850
162866
162840
162827
162768
162798
162739
162810
162833
162838
162898
162847
162840
162851
162840
162888
162880
162843
162810
162768
162880
162933
162910
162925
162923
162945
162925
162881
162836
162755
162824
162891
162902
162975
162925
162927
162949
162942
162883
162734
162744
162810
162874
162963
162949
162942
162939
162856
162837
162808
162866
162869
162899
162895
162849
162912
162896
162914
162920
162856
162863
162875
162876
162865
162870
162885
162844
162767
162772
162862
162982
162893
162835
162882
162910
162849
162764
162833
162835
162758
162798
162934
162983
162991
162900
162964
163028
163018
162942
162832
162946
163101
163212
163234
163245
163162
163076
162925
162857
162823
162908
163022
162970
162860
162745
162650
162635
162600
162586
162579
162613
162647
162673
162691
162689
162746
162760
162718
162802
162749
162844
162954
163022
163008
162924
162968
162964
162956
162947
162849
162850
162860
162985
163015
162890
162955
162933
162916
162946
162914
163022
163093
163098
163043
163036
162955
162910
162911
162942
162964
163026
163028
162964
162883
162818
162871
162836
162876
163017
163005
163142
163178
163153
163082
163036
163024
162875
162821
162870
162905
163026
163108
163120
163088
163024
162973
162950
162890
162866
162865
162983
163081
162993
163021
163003
163004
162984
162948
162930
162897
162928
162982
163018
163080
163061
163005
162972
162940
162965
162946
162966
162998
163067
163165
163123
163070
163026
162990
162947
162969
163074
163097
163114
163076
163091
163084
163009
162979
162993
162933
162972
163022
163054
163005
162999
163030
162990
163020
163059
163033
163061
163081
163084
163047
162977
162945
162995
162992
162985
162902
162929
162923
162912
162912
162844
162762
162826
162978
162994
162878
162914
162930
162895
162871
162856
162832
162863
162794
162807
162713
162733
162791
162793
162805
162929
162949
162934
162852
162867
162891
162929
162950
162876
162933
162836
162811
162836
162883
162931
162936
162951
162916
162872
162900
162923
162873
162804
162900
162915
162782
162833
162914
162912
162863
162916
162956
162921
162753
162787
162796
162878
163037
163084
163075
163071
163062
162994
163020
162960
162870
162923
162963
162991
163050
163020
163032
163001
162936
162922
162872
162872
162914
162942
162995
162933
162940
162911
162869
162877
162693
162704
162820
162953
163041
162960
162937
162880
162874
162866
162834
162843
162837
162834
162831
162744
162809
162866
162963
162960
162885
162878
162956
162950
162869
162798
162826
162811
162857
162872
162843
162873
162908
162901
162899
162852
162895
162826
162782
162786
162804
162872
162950
162882
162952
162925
162832
162800
162799
162823
162801
162836
162901
162964
162893
162923
162930
162925
162920
162818
162777
162818
162904
162964
162998
162950
162958
162905
162888
162839
162762
162785
162786
162791
162790
162832
162866
162888
162854
162875
162880
162834
162795
162833
162923
162861
162795
162712
162758
162732
162735
162862
162916
162929
162903
162847
162812
162771
162771
162786
162732
162813
162834
162851
162862
162835
162847
162818
162764
162721
162755
162777
162843
162898
162893
162864
162889
162848
162815
162798
162650
162695
162704
162728
162872
162860
162892
162869
162880
162902
162856
162833
162858
162814
162710
162710
162833
162915
162935
162893
162925
162911
162894
162907
162855
162861
162848
162769
162773
162878
162835
162804
162833
162838
162838
162834
162863
162869
162791
162811
162790
162837
162860
162872
162851
162907
162905
162771
162730
162723
162740
162798
162810
162778
162824
162857
162953
162895
162846
162774
162683
162786
162847
162874
162848
162811
162825
162844
162819
162764
162664
162669
162751
162810
162784
162847
162894
162918
162759
162681
162743
162846
162952
162964
162879
162781
162829
162776
162769
162815
162790
162837
162883
162859
162853
162885
162925
162865
162847
162868
162797
162819
162826
162829
162824
162756
162785
162843
162985
162938
162861
162889
162938
162933
162867
162872
162905
162818
162781
162759
162719
162803
162815
162899
162902
162803
162798
162750
162673
162702
162763
162758
162780
162759
162771
162760
162733
162704
162788
162810
162748
162735
162797
162793
162840
162844
162826
162775
162771
162679
162688
162775
162793
162803
162807
162782
162794
162835
162865
162821
162766
162830
162934
162956
162975
162914
162936
162927
162842
162816
162737
162663
162623
162642
162659
162560
162557
162481
162465
162424
162363
162425
162529
162591
162599
162569
162634
162646
162680
162647
162609
162682
162758
162797
162766
162720
162753
162737
162796
162852
162727
162666
162700
162781
162859
162842
162865
162880
162849
162805
162715
162679
162724
162757
162850
162899
162942
162843
162769
162779
162762
162795
162903
162962
163002
162956
162929
162868
162787
162804
162798
162844
162924
162987
163002
162894
162926
162918
162854
162831
162767
162786
162823
162856
162945
162947
162897
162856
162811
162802
162831
162883
162930
162996
162973
162881
162850
162786
162831
162891
162886
162915
162906
162944
162942
162963
163027
162959
162983
162968
162906
162920
162978
163030
163019
162989
163013
162984
162929
162862
162789
162877
162991
163042
163027
162995
163018
163006
162919
162914
162859
162879
162992
162970
162939
162943
163040
162970
163036
163007
162996
162999
163070
163096
163100
163003
162959
162876
162839
162867
162878
162958
162968
163033
162957
162865
162898
162971
162882
162849
162808
162773
162826
162887
162912
162928
162935
162904
162868
162856
162808
162794
162802
162796
162803
162808
162860
162835
162896
162919
162902
162898
162985
163019
163054
163000
162954
162808
162816
162853
162832
162907
162910
162861
162854
162852
162864
162852
162847
162851
162802
162790
162839
162918
162946
162890
162974
162965
162919
162928
162866
162876
162910
162925
162901
162860
162869
162898
162921
162954

[HeartVoice API 返回]
# HeartVoice 专业 API 返回的聚合指标（不返回原始波形分析数据）
# 与下方 [算法提取后的结构化特征] 对照可定位本地算法差异
平均心率:56
最低心率:0
最高心率:0
诊断:SNB
QRS宽度:98
P波宽度:98
PR间期:145
QT间期:348
QTc:337
房性早搏:0
室性早搏:0
信号质量:0.9
导联反接:true
是否异常:true

[算法提取后的结构化特征]
# 由 EcgFeatureExtractor.extract() + toPromptText() 在手机端重建
# 与手表端发给 DeepSeek 的提示词文本一致（DS 实际收到的数据）
# 注意: 用户 profile（年龄性别）未存入测量记录，手机端重建时为'未知'
#       助手如需年龄性别做医学判断，需用户单独提供

[用户属性]

[全局指标]
采样率:500Hz 时长:30.9s 总点数:15460
R波检测:29个 平均心率:58bpm 范围:51-72bpm
R波位置(样本索引):876,980,1393,1743,1919,2190,2630,3003,3440,3778,4495,4615,4781,5153,6167,6846,7318,8920,9468,9573,10510,11045,11627,11964,12498,13672,13918,14199,14714
RR间期序列(ms，[*]为偏离均值>20%的异常间期，多为早搏/误检):826 [700*] [352*] [542*] 880 [746*] 874 [676*] [1434*] [332*] [744*] [2028*] [1358*] 944 1096 [1874*] 1070 1164 [674*] 1068 [2348*] [492*] [562*] 1030
RR差值序列(ms):-126,-348,190,338,-134,128,-198,758,-1102,412,1284,-670,-414,152,778,-804,94,-490,394,1280,-1856,70,468
SDNN:110.5ms RMSSD:79.9ms pNN50:62.5%
QRS宽度(本地估测,ms):55±13
PR间期(本地估测,ms):175±62
QT间期(本地估测,ms):368 QTc(Bazett):361ms QTc(Fridericia):363ms
R波平均振幅:0.28mV
R波极性:负向(负向提示导联反接/位置异常)
T/R振幅比:0.97(正常0.1-0.5，<0.1低平，>0.5高尖)
ST段偏移(本地估测,mV):0.023(正常±0.05，>0.1抬高，<-0.1压低)
信号质量:0.81 良好
噪声段:15.0-16.0s(噪声); 25.0-26.0s(噪声); 26.0-27.0s(噪声)

[节律判别特征]
R波可靠性:边缘
可靠性指标:极端RR占比13% 有效RR占比87% 相邻RR跳变0% R峰-时长一致性0.97 异常段占比23%
提示:R波定位稳定性边缘：极端RR占比13%、有效RR占比87%，节律判读需谨慎
RR变异系数:0.111(轻度不齐)
Poincaré散点形态:彗星形(规律)
短-长RR配对数(早搏代偿):2个
注意:R波定位稳定性边缘，节律判读需谨慎，不宜仅凭CV/Poincaré下房颤诊断。

[逐秒分段]
时段(s)  R波  振幅范围(mV)  峰峰值(mV)  最大斜率(mV/s)  RMS(mV)
0.0-1.0  0  -1.42~1.30  2.72  79.00  0.75
1.0-2.0  2  -1.48~1.46  2.93  88.00  0.81
2.0-3.0  1  -1.04~1.10  2.13  76.50  0.63
3.0-4.0  2  -0.74~0.91  1.64  98.50  0.41
4.0-5.0  1  -0.37~0.52  0.90  92.50  0.20
5.0-6.0  1  -0.51~0.78  1.29  79.50  0.27
6.0-7.0  2  -1.24~0.74  1.98  95.50  0.38
7.0-8.0  1  -0.54~0.35  0.89  88.50  0.17
8.0-9.0  1  -0.57~0.43  1.00  88.00  0.26
9.0-10.0  2  -0.38~0.36  0.74  82.50  0.13
10.0-11.0  1  -0.38~0.33  0.71  90.50  0.13
11.0-12.0  0  -0.35~0.30  0.66  88.50  0.12  ← 本秒无R波(心率<60或代偿间隙)
12.0-13.0  1  -0.44~0.25  0.70  102.00  0.14
13.0-14.0  1  -0.47~0.46  0.93  75.00  0.22
14.0-15.0  1  -0.50~0.40  0.90  89.00  0.14
15.0-16.0  0  -0.36~0.23  0.60  90.00  0.09  ← 噪声段
16.0-17.0  0  -0.45~0.25  0.71  81.50  0.11  ← 本秒无R波(心率<60或代偿间隙)
17.0-18.0  1  -0.48~0.33  0.82  92.50  0.11
18.0-19.0  1  -0.57~0.31  0.89  71.00  0.13
19.0-20.0  1  -0.67~0.52  1.18  92.00  0.24
20.0-21.0  0  -0.58~1.11  1.69  89.50  0.38  ← 本秒无R波(心率<60或代偿间隙)
21.0-22.0  1  -2.04~0.98  3.02  99.50  0.85
22.0-23.0  1  -0.43~1.03  1.46  88.50  0.32
23.0-24.0  2  -1.17~0.93  2.10  82.00  0.51
24.0-25.0  1  -0.62~0.44  1.07  113.00  0.24
25.0-26.0  0  -0.44~0.24  0.68  81.50  0.10  ← 噪声段
26.0-27.0  0  -0.38~0.27  0.65  75.50  0.10  ← 噪声段
27.0-28.0  2  -0.34~0.30  0.64  96.50  0.11
28.0-29.0  1  -0.41~0.32  0.73  92.00  0.12
29.0-30.0  1  -0.29~0.37  0.67  92.00  0.12
逐秒RMS:0.748,0.815,0.628,0.412,0.205,0.266,0.378,0.172,0.257,0.131,0.130,0.124,0.138,0.216,0.137,0.087,0.115,0.113,0.130,0.239,0.375,0.846,0.319,0.507,0.244,0.097,0.096,0.115,0.117,0.119

[AI 解读]
# DeepSeek 返回的原始 JSON（未清洗，可能含 markdown 代码块包裹）
本次测量未使用 AI 分析（分析方法非 ds_*）
