========== ECG 算法诊断包 ==========
测量时间: 2026-07-16 19:25:57
测量时间戳:1784201157644
采样率:500 Hz
数据点数:15390
时长:30.8 秒
分析方法:heartvoice

[原始 ECG 数据]
# 单位: mV×1000 整数（如 500 = 0.5mV，-1000 = -1.0mV）
# 采样率: 500 Hz，连续采样，无降采样无压缩
# 用途: 助手据此复现本地算法行为（基线漂移/噪声段/R波检测）
# 格式: 每行一个数值，行号=采样点索引（第1行=索引0，即 t=0.000s）
160811
160867
160723
160751
160716
160672
160685
160637
160667
160686
160738
160744
160789
160836
160822
160653
160634
160645
160675
160660
160687
160764
160757
160827
160681
160598
160617
160679
160712
160731
160749
160833
160773
160663
160714
160632
160558
160652
160657
160743
160748
160776
160798
160741
160661
160543
160579
160534
160582
160602
160661
160729
160742
160751
160634
160488
160532
160569
160503
160578
160585
160578
160656
160761
160779
160722
160625
160645
160687
160595
160625
160681
160771
160780
160676
160613
160575
160523
160613
160737
160812
160835
160804
160838
160757
160668
160675
160746
160785
160854
160995
161047
160984
160975
160891
160706
160630
160556
160458
160477
160421
160384
160285
160298
160296
160325
160424
160388
160320
160320
160397
160539
160568
160588
160560
160569
160633
160558
160566
160649
160687
160905
160930
160891
160828
160688
160662
160599
160634
160699
160809
160833
160928
160854
160798
160658
160671
160706
160660
160687
160794
160908
160921
160870
160792
160713
160712
160773
160789
160807
160850
160869
160906
160835
160846
160868
160850
160793
160837
160882
160854
160927
160943
160931
160943
160916
160924
160964
160896
160915
160887
160900
160870
160962
161089
160905
160850
160881
160875
160926
160930
161002
161057
160981
160831
160775
160893
161020
161044
161047
160960
160996
161081
161162
161147
160994
160987
160998
161035
161054
161083
161232
161184
161162
161141
161004
160963
160982
160935
161035
161055
161118
161233
161195
161038
160886
160868
160924
160968
161017
161045
161116
161009
160930
160971
160987
160926
160951
160976
160938
160931
161025
161035
161043
160991
160828
160835
160867
160845
160852
160975
161094
161083
160982
160983
160839
160807
160805
160816
160888
160931
160891
160938
160990
160906
160878
160875
160861
160837
160846
160910
161018
161054
161056
160978
160930
160897
160874
160908
160949
160966
161002
160972
161054
161045
160907
160919
160904
160848
160871
160985
161072
161173
161157
161056
160932
160874
160858
160937
160994
161058
161098
161028
161039
160997
160930
160923
160957
161016
161059
161081
161185
161162
161076
160953
160782
160750
160908
161042
161141
161167
161171
161134
161169
161114
161013
160984
160948
160930
160915
160955
161043
161131
161188
161228
161224
161138
161011
161026
161096
161111
161182
161181
161146
161085
161046
161087
161213
161195
161181
161191
161263
161342
161320
161241
161148
161129
161146
161155
161167
161183
161209
161203
161155
161186
161173
161177
161174
161114
161206
161225
161326
161330
161286
161248
161142
161157
161255
161195
161182
161201
161333
161413
161380
161302
161194
161192
161213
161301
161307
161384
161427
161416
161362
161294
161242
161255
161355
161429
161386
161419
161492
161478
161459
161486
161452
161490
161524
161501
161437
161440
161657
161680
161625
161632
161578
161604
161525
161573
161640
161681
161797
161855
161903
161835
161821
161820
161778
161798
161822
161817
161951
162012
162026
161928
161811
161794
161820
162029
162087
162036
162138
162182
162174
162089
161975
162016
162069
162091
162060
162066
162268
162458
162401
162374
162284
162275
162209
162223
162289
162322
162387
162416
162440
162508
162465
162462
162441
162453
162451
162460
162574
162602
162572
162538
162535
162514
162590
162606
162638
162647
162826
162898
162897
162879
162819
162771
162768
162824
162949
162900
162941
162963
162997
163117
163020
163009
162987
163011
163078
163108
163134
163180
163195
163213
163150
163189
163195
163289
163277
163354
163463
163550
163538
163485
163484
163497
163476
163493
163511
163539
163671
163669
163667
163699
163717
163684
163665
163672
163636
163659
163730
163806
163832
163931
163847
163729
163719
163743
163794
163859
163926
163899
163975
164069
164001
163940
163855
163880
163950
164051
164154
164253
164226
164227
164176
164134
164164
164174
164150
164169
164334
164370
164361
164399
164318
164254
164176
164189
164326
164534
164738
164681
164674
164737
164751
164762
164778
164766
164718
164673
164810
164790
164816
164756
164540
164432
164357
164320
164262
164341
164508
164567
164567
164568
164466
164495
164553
164627
164677
164698
164754
164794
164923
165098
165083
165084
165035
165090
165097
165076
165145
165243
165264
165292
165231
165162
165107
165066
165041
165137
165410
165489
165400
165405
165351
165248
165292
165291
165243
165271
165357
165376
165254
165349
165525
165462
165349
165302
165391
165537
165572
165531
165580
165664
165528
165464
165398
165457
165514
165489
165516
165667
165711
165634
165544
165493
165581
165600
165582
165557
165651
165643
165679
165642
165610
165660
165628
165601
165565
165588
165716
165719
165772
165769
165728
165674
165616
165536
165525
165652
165785
165849
165887
165862
165780
165728
165681
165679
165708
165718
165793
165817
165914
165910
165805
165760
165726
165743
165820
165781
165869
165946
165840
165749
165697
165731
165812
165875
165907
165909
165967
165927
165918
165924
165843
165796
165764
165739
165779
165738
165916
166014
165994
165974
165893
165817
165774
165758
165763
165827
165939
165966
165955
165940
165906
165923
165955
165902
165838
165893
166024
166005
165963
165995
166005
165990
165879
165872
165967
165920
165967
165963
166008
166077
166046
165987
165958
165879
165927
166041
166136
166183
166098
166073
166060
166035
166024
166001
165969
166035
166147
166186
166184
166110
166041
165958
165913
165875
165928
165932
165994
166087
166166
166075
165919
165891
165891
165882
165889
165802
165805
165864
165869
165929
165816
165816
165790
165772
165817
165795
165776
165767
165753
165762
165771
165790
165733
165676
165657
165672
165758
165795
165713
165835
165753
165679
165693
165683
165642
165597
165705
165700
165681
165695
165672
165718
165651
165602
165685
165674
165721
165814
165892
165876
165774
165744
165711
165730
165758
165732
165766
165822
165840
165879
165780
165823
165841
165791
165743
165778
165885
165868
165847
165771
165726
165805
165787
165678
165677
165718
165739
165799
165758
165730
165715
165731
165613
165605
165567
165518
165596
165671
165786
165744
165663
165605
165550
165570
165581
165507
165495
165576
165602
165630
165622
165538
165544
165512
165458
165409
165510
165526
165543
165679
165642
165609
165539
165437
165366
165322
165521
165712
165672
165675
165562
165459
165414
165370
165494
165441
165597
165667
165621
165553
165438
165443
165533
165567
165599
165561
165648
165641
165623
165589
165487
165466
165564
165530
165444
165481
165606
165673
165647
165544
165452
165473
165531
165511
165433
165436
165466
165489
165516
165514
165442
165370
165321
165333
165279
165288
165355
165420
165403
165467
165432
165402
165266
165130
165124
165223
165424
165500
165391
165341
165199
165183
165137
165101
165074
165065
165180
165291
165229
165192
165135
165074
165030
164971
165058
165122
165172
165177
165189
165115
164984
164938
164941
164938
164984
164961
165082
165230
165230
165212
165110
165091
164989
165024
165066
165012
165010
165084
165087
165168
165249
165202
165126
165071
165036
165029
165075
165091
165190
165176
165105
165063
164941
164865
164927
164985
165052
165097
165103
165119
165025
164943
164939
164863
164856
164837
164880
164991
165019
164958
164822
164801
164867
164778
164755
164699
164666
164759
164872
164865
164797
164785
164710
164672
164617
164560
164655
164663
164691
164656
164590
164687
164673
164664
164687
164596
164671
164795
164854
164857
164823
164761
164768
164634
164590
164503
164430
164395
164284
164187
164123
164034
164024
164013
163951
163923
163987
164111
164196
164216
164146
164107
164085
164079
164107
164146
164244
164359
164376
164425
164356
164307
164393
164294
164201
164161
164385
164447
164406
164396
164444
164356
164321
164262
164236
164222
164297
164483
164451
164409
164302
164361
164337
164274
164347
164349
164393
164398
164402
164358
164252
164268
164312
164262
164238
164236
164267
164332
164347
164335
164290
164264
164185
164152
164178
164151
164237
164226
164331
164300
164217
164161
164096
164059
163999
163983
164059
164131
164102
164044
163984
163988
164061
164068
164003
163966
163977
164074
164096
164060
163924
163919
163904
163879
163879
163833
163960
163982
164047
164073
164070
163990
163947
163863
163903
163912
163901
163903
163931
164050
164093
164013
163865
163700
163682
163836
163967
164056
164145
164013
163908
163897
163812
163812
163780
163671
163727
163869
163825
163833
163863
163825
163888
163860
163805
163723
163762
163804
163798
163718
163629
163695
163698
163572
163594
163623
163711
163698
163659
163639
163584
163587
163512
163512
163546
163543
163664
163622
163554
163613
163629
163702
163643
163558
163526
163397
163491
163644
163658
163649
163598
163558
163455
163357
163363
163386
163447
163507
163500
163574
163556
163395
163406
163399
163435
163374
163420
163461
163435
163448
163385
163340
163330
163255
163316
163319
163407
163464
163429
163409
163364
163253
163258
163200
163207
163147
163091
163202
163339
163372
163345
163340
163258
163166
163072
163024
163156
163264
163306
163279
163125
163096
163088
163043
163114
163131
163141
163203
163176
163041
162949
163009
163110
163125
163139
163023
163009
163058
163081
163088
162960
162894
162884
163012
163083
163068
163142
163087
163085
163084
163037
162998
162945
162862
162868
162777
162843
162880
162970
163067
163072
163050
162932
162861
162855
162845
162915
162942
162958
162938
162967
162946
162847
162743
162773
162772
162727
162799
162896
162946
162828
162865
162902
162827
162742
162665
162702
162780
162880
162900
162884
162910
162861
162712
162676
162632
162679
162664
162821
162856
162870
162871
162811
162703
162641
162684
162766
162746
162823
162897
162905
162816
162752
162742
162728
162733
162803
162882
162863
162843
162820
162816
162735
162622
162629
162679
162775
162775
162864
162924
162872
162833
162809
162670
162691
162632
162675
162806
162954
162841
162813
162802
162752
162743
162704
162619
162634
162685
162741
162836
162856
162888
162768
162643
162646
162614
162629
162642
162745
162837
162762
162658
162689
162609
162528
162493
162528
162629
162613
162615
162609
162615
162594
162540
162538
162520
162530
162547
162505
162504
162419
162460
162434
162456
162473
162376
162471
162567
162646
162624
162567
162508
162401
162351
162364
162338
162415
162466
162614
162643
162556
162494
162409
162424
162444
162495
162406
162435
162467
162495
162418
162430
162409
162385
162410
162314
162376
162427
162453
162471
162439
162391
162400
162408
162297
162211
162298
162395
162424
162452
162406
162340
162269
162254
162279
162225
162239
162382
162484
162455
162400
162361
162291
162219
162208
162225
162222
162301
162270
162329
162279
162357
162384
162388
162298
162301
162403
162472
162612
162623
162503
162503
162432
162278
162189
162067
162039
162119
162060
161947
161866
161849
161867
161817
161675
161659
161742
161800
161912
161965
161996
162020
161898
161901
162054
162060
162148
162219
162288
162314
162297
162295
162227
162108
162050
161985
162064
162127
162203
162187
162124
162095
162069
162008
161991
161950
162020
162056
162142
162181
162147
162140
162125
162027
161975
161882
161958
162038
162136
162153
162065
162101
162148
162110
161983
161905
161971
162034
162091
162134
162077
162105
162033
161888
161829
161793
161846
161965
162105
162068
161990
161975
161983
161890
161870
161893
161957
161925
161951
161992
161957
161949
161865
161810
161797
161715
161805
161898
161978
161971
161854
161873
161906
161881
161807
161714
161783
161804
161876
161906
161844
161870
161853
161849
161770
161723
161691
161756
161800
161818
161816
161871
161839
161772
161735
161719
161830
161828
161832
161785
161742
161832
161906
161839
161653
161631
161676
161747
161752
161835
161793
161887
161781
161673
161648
161635
161707
161743
161652
161658
161777
161865
161782
161735
161697
161647
161604
161614
161683
161804
161820
161790
161738
161651
161543
161478
161616
161862
161898
161873
161833
161790
161734
161655
161595
161636
161671
161697
161747
161741
161726
161708
161825
161800
161721
161642
161600
161675
161681
161714
161644
161674
161655
161599
161711
161651
161654
161719
161743
161802
161697
161777
161668
161577
161547
161561
161567
161550
161553
161639
161735
161796
161778
161697
161614
161489
161506
161586
161734
161729
161699
161656
161595
161470
161503
161582
161680
161717
161757
161740
161656
161666
161674
161540
161506
161430
161478
161656
161737
161765
161772
161706
161639
161689
161656
161569
161549
161597
161607
161676
161728
161746
161740
161658
161630
161598
161566
161604
161685
161768
161830
161817
161809
161729
161611
161578
161569
161667
161762
161820
161779
161834
161871
161824
161748
161681
161728
161789
161771
161850
161734
161804
161813
161772
161761
161716
161790
161819
161863
161898
161874
161893
161798
161724
161613
161622
161733
161850
162011
162111
161974
161986
161993
161861
161736
161702
161813
161904
162001
162025
161955
161996
162016
162069
161876
161834
161910
161968
161971
162011
162036
162040
162022
162070
162002
161948
162024
162104
162146
162156
162129
162099
162067
162015
161973
162037
162073
162186
162296
162295
162179
162161
162176
162146
162148
162084
162142
162201
162245
162308
162275
162264
162216
162204
162179
162118
162184
162239
162216
162226
162243
162381
162422
162277
162166
162197
162199
162194
162233
162399
162342
162408
162409
162362
162290
162207
162210
162338
162458
162565
162506
162480
162439
162308
162307
162313
162407
162453
162469
162508
162518
162521
162531
162467
162440
162419
162531
162562
162612
162624
162595
162605
162599
162547
162642
162552
162525
162621
162652
162808
162855
162818
162725
162650
162601
162554
162603
162746
162921
162918
162788
162848
162854
162786
162765
162770
162837
162831
162847
162988
163017
163041
162956
162901
162817
162866
162806
162789
162952
163090
163068
163021
163028
162941
162846
162737
162859
163008
163067
163101
162989
162987
163029
162964
162921
162929
162934
162995
163043
163165
163187
163099
163028
163018
162937
162844
162848
162903
162961
162996
163044
163109
163116
163142
163020
162891
162964
163023
163130
163127
163035
163018
163057
163075
162998
162978
163014
163089
163150
163250
163236
163279
163226
163209
163176
163206
163282
163264
163255
163269
163155
163056
162951
162792
162649
162571
162562
162576
162660
162756
162807
162904
162843
162751
162755
162763
162837
162888
162961
163094
163151
163219
163207
163156
163072
162939
162982
163107
163187
163214
163181
163214
163205
163169
163051
162934
163056
163082
163119
163139
163121
163273
163288
163268
163199
163097
163129
163057
163110
163220
163281
163291
163202
163162
163052
162970
163143
163243
163277
163311
163273
163261
163170
163134
163107
163021
163026
163087
163180
163252
163213
163188
163241
163142
163045
162973
163105
163146
163108
163158
163164
163218
163189
163074
163011
163002
163028
163044
163038
163073
163144
163197
163206
163177
163030
163021
163019
163021
163103
163178
163116
163094
163069
162984
162932
162966
162995
163056
163108
163178
163174
163196
163184
163115
163043
162923
162977
163028
163080
163104
163153
163135
163153
163153
162974
162896
162864
162859
163017
163085
163162
163125
163066
162937
162879
162843
162921
162932
162958
162974
162957
162959
162934
162870
162799
162734
162795
162822
162795
162932
162975
162931
162979
162975
162847
162731
162732
162739
162831
162922
162950
163011
163002
162892
162892
162767
162840
162826
162847
162879
162929
162951
162877
162826
162769
162661
162682
162674
162771
162877
162902
162866
162875
162851
162748
162677
162701
162665
162791
162886
162915
162905
162830
162730
162728
162657
162683
162696
162737
162778
162798
162814
162788
162769
162718
162589
162606
162609
162661
162721
162666
162669
162673
162651
162771
162790
162643
162591
162597
162686
162714
162722
162696
162612
162560
162453
162503
162526
162473
162556
162587
162548
162558
162526
162573
162472
162534
162511
162593
162618
162605
162630
162575
162447
162327
162275
162483
162544
162615
162614
162561
162628
162635
162485
162392
162370
162477
162496
162525
162554
162528
162554
162517
162447
162380
162264
162276
162323
162404
162422
162397
162580
162597
162513
162384
162350
162325
162329
162342
162412
162469
162464
162481
162432
162329
162224
162157
162146
162209
162313
162361
162414
162370
162320
162281
162157
162123
162152
162162
162223
162213
162256
162345
162274
162152
162038
162062
162045
162082
162093
162176
162326
162356
162134
162017
162022
162015
162039
162156
162161
162130
162180
162147
162029
161954
161942
161993
162043
162113
162119
162115
162088
162029
162019
162011
161985
161960
161992
162046
162068
162046
162049
162010
162000
161931
161899
161909
161893
161862
161918
161906
161918
161849
161835
161889
161812
161853
161921
161868
161944
161974
162009
162002
161844
161731
161688
161743
161762
161800
161888
161848
161824
161771
161730
161768
161784
161745
161693
161732
161757
161750
161750
161752
161733
161644
161694
161691
161651
161671
161708
161731
161761
161767
161729
161636
161551
161634
161601
161614
161640
161651
161717
161802
161742
161647
161576
161542
161492
161438
161549
161680
161721
161668
161675
161650
161562
161551
161597
161620
161688
161633
161676
161662
161607
161525
161542
161529
161477
161479
161498
161657
161742
161691
161590
161548
161418
161391
161455
161521
161527
161616
161647
161604
161539
161476
161366
161359
161445
161510
161512
161464
161466
161420
161309
161380
161441
161568
161509
161456
161509
161524
161551
161506
161412
161406
161287
161318
161438
161399
161406
161544
161528
161508
161461
161440
161328
161297
161326
161415
161415
161369
161438
161554
161473
161395
161209
161061
161145
161347
161481
161464
161409
161384
161330
161323
161229
161181
161162
161147
161297
161348
161417
161365
161284
161298
161232
161213
161211
161212
161207
161254
161307
161354
161350
161240
161124
161093
161122
161152
161260
161277
161365
161340
161293
161163
161000
161017
161155
161294
161404
161375
161397
161410
161381
161269
161244
161355
161478
161451
161434
161479
161424
161418
161364
161207
161031
160941
160850
160765
160724
160765
160886
160857
160858
160771
160761
160771
160788
160829
160964
161006
161092
161068
161132
161035
160973
161020
161002
161139
161184
161188
161208
161196
161174
161145
161022
161025
161062
161111
161137
161206
161201
161153
161128
161066
160950
161050
161104
161102
161018
161030
161031
161145
161177
161127
161025
160977
160998
161081
161049
161060
161135
161150
161110
161046
160990
161062
161079
160969
161016
161101
161114
161088
161066
161054
160948
160948
161013
161004
160991
160931
160994
161010
161013
161084
160968
160922
160953
160922
160963
161008
161003
161018
161008
160935
160872
160889
160897
160902
160890
160864
161017
161097
161082
161022
160962
160959
160870
160857
160949
161026
161034
161039
160945
160889
160776
160879
160877
160871
160948
160977
160970
160960
160909
160842
160730
160725
160755
160783
160798
160762
160899
160910
160816
160753
160783
160723
160806
160927
160837
160736
160792
160785
160767
160734
160683
160664
160613
160650
160739
160814
160858
160787
160811
160745
160566
160514
160633
160603
160755
160771
160796
160841
160745
160709
160610
160547
160520
160633
160660
160701
160774
160767
160708
160689
160671
160619
160611
160598
160654
160694
160665
160690
160651
160670
160538
160499
160562
160640
160676
160671
160705
160722
160658
160506
160404
160424
160607
160644
160686
160599
160562
160580
160614
160605
160531
160481
160466
160501
160539
160506
160534
160594
160600
160502
160446
160363
160366
160396
160458
160523
160562
160540
160476
160458
160345
160387
160380
160317
160414
160457
160467
160431
160429
160523
160460
160339
160307
160312
160345
160350
160461
160470
160417
160392
160358
160347
160301
160298
160361
160490
160482
160470
160475
160395
160202
160120
160224
160452
160466
160456
160458
160455
160432
160296
160129
160122
160142
160103
160232
160221
160318
160403
160407
160347
160200
160117
160114
160085
160160
160199
160232
160200
160248
160217
159979
159982
160012
160210
160267
160201
160225
160206
160192
160076
159999
160054
160056
160100
160131
160054
160028
160100
160108
160096
160039
160090
160011
160019
160094
160103
160114
160180
160160
160045
159918
159860
159929
159908
159911
160087
160229
160181
160145
160109
160006
159938
159893
159847
159948
160041
160178
160169
160160
160098
160013
159956
159950
160018
160090
160012
160093
160134
160080
160058
159989
159978
159971
159976
159998
160009
160034
160005
159987
159916
159879
159942
159896
159883
159913
159950
160043
159953
159888
159913
159914
159854
159876
159863
159886
159879
159917
159947
159965
159903
159752
159682
159693
159831
159891
159863
159881
159794
159909
159964
159823
159739
159732
159737
159781
159862
159906
159904
159836
159807
159642
159666
159748
159817
159763
159722
159780
159900
159875
159842
159749
159725
159709
159688
159753
159820
159893
159839
159779
159805
159773
159682
159637
159666
159741
159752
159743
159659
159669
159715
159696
159773
159720
159668
159680
159732
159817
159821
159759
159662
159520
159453
159447
159630
159804
159761
159862
159829
159736
159692
159614
159608
159652
159633
159606
159656
159740
159757
159743
159740
159664
159516
159433
159463
159519
159704
159694
159635
159662
159656
159623
159571
159541
159508
159518
159519
159516
159632
159764
159722
159597
159527
159570
159516
159494
159468
159514
159576
159686
159690
159559
159474
159416
159414
159392
159461
159548
159544
159535
159480
159442
159470
159451
159459
159471
159494
159529
159519
159506
159617
159564
159534
159416
159337
159351
159399
159472
159558
159568
159629
159519
159459
159493
159502
159471
159538
159703
159772
159749
159663
159512
159481
159455
159364
159304
159290
159284
159177
159080
158960
158854
158917
158946
159002
158998
159031
159028
159104
159072
159060
159026
158991
159042
159130
159161
159237
159326
159313
159339
159340
159204
159171
159162
159104
159088
159159
159230
159221
159295
159231
159081
159157
159181
159188
159083
159059
159188
159242
159240
159133
159083
159163
159133
159105
159049
159094
159167
159223
159260
159169
159115
159104
159030
158990
159091
159118
159172
159231
159180
159121
159108
159047
159028
159057
159005
158941
159072
159173
159202
159047
159009
159007
159014
159021
159037
159019
159028
159037
159028
159099
159013
158952
158936
158947
158955
158933
159001
159042
159052
159036
158923
158937
158871
158826
158755
158755
158937
159115
159122
159073
158966
158918
158810
158733
158810
158984
159090
159052
159117
159024
158895
158836
158768
158806
158822
158910
159030
159057
158973
158923
158814
158791
158769
158783
158785
158783
158859
158863
158784
158800
158723
158719
158689
158674
158773
158756
158813
158769
158738
158767
158767
158764
158702
158715
158703
158665
158796
158785
158783
158841
158730
158620
158591
158592
158646
158707
158795
158832
158820
158821
158656
158599
158549
158545
158626
158671
158761
158771
158732
158750
158720
158703
158728
158632
158600
158594
158757
158840
158801
158795
158659
158588
158526
158558
158636
158629
158758
158857
158734
158726
158706
158684
158600
158585
158593
158651
158685
158742
158674
158564
158441
158547
158654
158742
158663
158631
158742
158766
158714
158638
158599
158528
158414
158443
158591
158589
158576
158653
158700
158681
158609
158482
158425
158445
158482
158556
158546
158594
158565
158573
158464
158469
158469
158489
158479
158400
158482
158426
158438
158566
158476
158592
158556
158496
158475
158506
158489
158580
158565
158579
158472
158461
158407
158359
158388
158417
158528
158577
158558
158525
158446
158443
158386
158393
158407
158336
158396
158536
158541
158527
158450
158450
158376
158410
158358
158384
158455
158451
158510
158480
158399
158326
158330
158372
158319
158313
158366
158415
158406
158452
158324
158243
158260
158251
158237
158298
158389
158402
158450
158468
158293
158222
158203
158253
158322
158286
158368
158431
158380
158362
158266
158332
158289
158288
158316
158370
158464
158474
158416
158368
158276
158197
158196
158280
158365
158330
158434
158493
158456
158402
158281
158358
158379
158343
158313
158351
158505
158515
158463
158450
158364
158361
158396
158346
158280
158255
158454
158522
158517
158472
158362
158348
158398
158384
158335
158307
158404
158405
158436
158515
158373
158353
158348
158376
158367
158350
158369
158334
158343
158329
158326
158344
158380
158412
158368
158362
158410
158440
158418
158347
158249
158256
158250
158293
158335
158298
158399
158361
158367
158479
158410
158307
158242
158244
158280
158277
158380
158445
158460
158395
158257
158277
158231
158235
158374
158401
158488
158454
158369
158386
158371
158300
158199
158153
158159
158238
158392
158439
158451
158378
158262
158194
158160
158209
158172
158159
158359
158418
158415
158443
158341
158254
158230
158262
158208
158169
158267
158289
158320
158363
158304
158200
158183
158158
158116
158160
158236
158301
158358
158306
158147
158187
158177
158072
158054
158107
158210
158282
158303
158263
158135
158002
157987
158023
158006
158018
158196
158319
158244
158143
158056
158108
158134
158054
158019
157987
158049
158144
158202
158161
158061
157967
157853
157812
157873
158022
158151
158157
158097
158148
158122
158062
157939
157919
157997
157929
157974
158051
158081
158203
158299
158192
158135
158080
158081
158118
158226
158346
158332
158377
158293
158219
157997
157888
157958
157968
158008
157975
157882
157695
157568
157527
157576
157615
157535
157463
157595
157694
157755
157860
157930
157966
157950
157857
157856
157897
157987
157993
158035
158038
158015
157944
157826
157820
157860
157914
157935
158030
158022
157943
157898
157942
157919
157926
157888
157886
157933
157948
157930
157927
158045
158026
157956
157910
157874
157817
157967
158016
158070
157998
157965
157935
157818
157791
157847
157871
158099
158146
158054
158005
158019
157955
157852
157848
157889
157850
157903
157969
157963
157974
158025
158112
158034
158013
157971
158045
158036
158094
158107
158089
158045
158010
157929
157889
157878
157938
158007
158186
158165
158091
158094
158047
157999
158000
157923
157964
158121
158177
158120
158082
158083
158110
158033
158041
158064
157987
158123
158183
158136
158169
158034
158043
158005
157949
158035
158055
158090
158155
158136
158152
158005
158006
157987
157896
157909
157946
157963
157987
157980
157979
158018
158032
157909
157890
157815
157807
157976
158026
158036
157976
157992
158002
157934
157853
157791
157789
157807
157887
157972
158044
158036
157961
157879
157848
157870
157851
158025
158083
158076
158022
157946
157815
157855
157847
157865
157908
158032
158123
158087
157989
157962
158040
157923
157854
157810
157804
157876
157941
158031
158048
158055
158011
157926
157884
157826
157794
157824
157841
157885
157978
158051
158050
157910
157850
157821
157820
157853
157864
157832
157866
157832
157898
157768
157806
157805
157778
157820
157856
157898
157854
157848
157906
157756
157697
157723
157650
157779
157828
157810
157807
157831
157862
157740
157586
157583
157623
157613
157697
157733
157679
157657
157648
157696
157753
157633
157540
157586
157641
157742
157726
157641
157645
157568
157502
157512
157504
157645
157678
157665
157636
157645
157626
157560
157471
157571
157645
157629
157650
157700
157663
157587
157557
157578
157560
157536
157442
157506
157537
157579
157582
157506
157520
157485
157501
157508
157431
157455
157424
157399
157439
157461
157617
157551
157406
157389
157329
157348
157363
157420
157399
157464
157483
157501
157485
157442
157368
157394
157424
157484
157421
157356
157331
157270
157286
157309
157263
157286
157353
157409
157389
157284
157292
157341
157252
157289
157277
157341
157331
157305
157396
157308
157223
157161
157122
157134
157215
157326
157338
157405
157397
157298
157265
157250
157259
157218
157152
157213
157260
157251
157274
157198
157332
157297
157168
157155
157125
157230
157239
157309
157353
157285
157238
157104
157038
157058
157155
157175
157204
157285
157312
157195
157157
157070
157082
157071
157046
157116
157223
157204
157188
157120
157093
157082
157109
157057
156994
157014
157075
157065
157131
157144
157150
157152
157042
156983
156974
157040
157099
157140
157105
157039
157028
156981
156977
156971
156979
157012
157070
157095
157122
157067
157028
156974
156950
156881
156781
156866
157062
157261
157231
157154
157142
156979
156926
156943
156933
156973
156997
156994
157018
157090
157212
157128
157049
156949
156900
156932
157055
157092
157176
157150
157075
156969
156922
156880
156955
157016
157053
157058
157047
157043
157106
157040
156957
156907
156899
157042
157040
157036
157046
156966
156956
156902
156816
156746
156802
156893
156976
157070
157079
157038
156974
156857
156870
156798
156695
156808
156975
157097
157143
157004
156915
156936
156885
156818
156803
156816
156911
156986
157077
157017
156983
156913
156823
156765
156701
156741
156865
156911
156875
156809
156814
156773
156749
156731
156669
156733
156782
156802
156829
156777
156856
156765
156717
156668
156616
156676
156817
156887
156820
156762
156707
156678
156614
156662
156636
156652
156721
156791
156759
156674
156682
156571
156500
156561
156625
156740
156808
156792
156778
156775
156808
156768
156725
156763
156714
156729
156817
156873
156819
156767
156700
156637
156510
156346
156271
156279
156265
156200
156189
156118
156068
156067
155857
155909
156111
156292
156320
156377
156320
156319
156362
156393
156311
156331
156365
156460
156515
156530
156524
156418
156384
156350
156299
156261
156185
156205
156365
156476
156494
156378
156359
156323
156299
156197
156197
156307
156478
156476
156411
156240
156248
156207
156337
156433
156320
156297
156400
156414
156383
156278
156272
156328
156289
156274
156253
156293
156388
156467
156447
156351
156387
156262
156173
156144
156217
156323
156371
156433
156322
156303
156319
156193
156105
156085
156203
156422
156396
156440
156425
156432
156401
156302
156225
156185
156197
156306
156372
156291
156275
156285
156343
156402
156378
156308
156246
156281
156333
156371
156315
156223
156300
156293
156141
156114
156153
156310
156366
156397
156354
156303
156226
156186
156088
156059
156068
156167
156216
156308
156303
156228
156271
156239
156138
156102
156038
156020
156058
156083
156119
156111
156135
156027
155923
155902
155877
156005
156140
156234
156236
156086
156090
156083
155975
155896
155823
155882
156167
156255
156199
156157
156159
156133
156001
155890
155947
156050
156146
156103
156114
156062
156015
155990
156033
156109
156087
156073
156085
156084
156107
156081
156089
156120
156052
155987
155943
155981
155997
156016
156100
156039
155982
156006
155991
155979
155927
156042
156073
156128
156176
156143
156144
155986
155850
155837
155863
155878
155981
156088
156154
156072
156060
155992
155923
155864
155907
155917
155958
155974
155969
155954
156041
155947
155903
155943
155922
155874
155938
155940
156028
156003
155964
155902
155845
155764
155777
155896
155991
155992
155981
155943
155952
155899
155804
155766
155761
155846
155906
155983
156025
155932
155905
155882
155826
155836
155785
155890
155971
155958
155992
155942
156031
155920
155797
155693
155734
155779
155832
156003
156006
156043
156011
155933
155855
155832
155815
155793
155786
155799
155796
155844
155983
155939
155872
155812
155859
155823
155802
155904
155892
155858
155851
155796
155667
155701
155704
155812
155884
155898
155950
155871
155895
155841
155759
155726
155626
155562
155723
155774
155886
155921
155920
155847
155731
155715
155680
155761
155813
155818
155868
155781
155855
155868
155662
155652
155618
155606
155804
155896
155954
155797
155747
155754
155811
155838
155801
155785
155837
155888
155823
155760
155840
155936
155854
155713
155693
155754
155755
155787
155837
155855
155860
155807
155729
155744
155759
155748
155763
155782
155833
155832
155815
155812
155788
155716
155658
155673
155678
155807
155841
155798
155784
155727
155739
155689
155687
155764
155761
155819
155778
155724
155782
155797
155761
155640
155574
155598
155577
155624
155696
155777
155949
155862
155709
155632
155514
155482
155491
155654
155774
155753
155882
155906
155801
155694
155607
155590
155558
155643
155689
155765
155840
155799
155662
155599
155534
155573
155718
155741
155724
155712
155744
155719
155646
155603
155534
155520
155497
155572
155719
155725
155724
155701
155627
155544
155472
155484
155536
155573
155607
155632
155636
155639
155682
155588
155487
155523
155636
155696
155711
155652
155622
155544
155457
155444
155448
155521
155495
155509
155629
155685
155733
155653
155551
155471
155356
155360
155393
155577
155736
155698
155638
155502
155446
155433
155437
155511
155618
155667
155722
155685
155696
155647
155575
155471
155460
155551
155599
155614
155611
155535
155564
155540
155457
155564
155516
155535
155536
155606
155711
155691
155634
155650
155555
155514
155467
155576
155561
155599
155625
155555
155556
155631
155720
155648
155578
155601
155565
155640
155645
155636
155705
155742
155687
155591
155545
155589
155550
155571
155630
155713
155756
155792
155718
155658
155581
155619
155741
155850
155874
155806
155842
155791
155708
155595
155703
155773
155665
155542
155502
155342
155237
155129
155038
155025
155000
155177
155219
155325
155340
155303
155394
155442
155377
155375
155286
155255
155328
155492
155580
155486
155492
155549
155565
155530
155473
155404
155390
155422
155452
155441
155545
155519
155465
155339
155240
155348
155459
155479
155531
155537
155531
155515
155457
155340
155294
155333
155330
155436
155545
155500
155573
155518
155423
155295
155226
155237
155318
155422
155444
155479
155456
155443
155441
155366
155313
155365
155317
155357
155404
155416
155420
155385
155370
155383
155319
155315
155270
155364
155444
155473
155452
155425
155334
155273
155219
155254
155232
155296
155369
155406
155512
155510
155300
155251
155230
155277
155294
155325
155358
155309
155310
155321
155300
155317
155223
155230
155232
155322
155353
155380
155375
155430
155383
155257
155189
155198
155171
155217
155279
155305
155312
155292
155258
155181
155123
155201
155124
155144
155244
155343
155320
155222
155099
155054
155090
155201
155220
155208
155160
155168
155233
155201
155126
155098
155087
155127
155138
155151
155203
155094
155103
155131
155170
155115
155100
155105
155120
155111
155169
155185
155219
155199
155117
155041
154931
154967
155076
155075
155216
155186
155191
155228
155185
155057
154927
155057
155070
155030
155081
155076
155181
155209
155139
155056
155040
155098
155089
155146
155243
155192
155214
155171
155029
154981
155029
155098
155119
155150
155177
155141
155135
155140
155013
154982
154887
154975
155099
155084
155129
155244
155203
155151
155033
154965
154865
154910
154898
154950
155058
155041
155102
155113
155031
154917
154706
154749
154897
154991
154979
154968
154947
154946
154883
154875
154840
154858
154819
154809
154813
154871
154972
155016
154950
154867
154726
154824
154875
154894
154863
154830
154769
154832
154845
154852
154873
154803
154781
154792
154838
154838
154843
154763
154704
154671
154638
154750
154770
154807
154808
154802
154800
154814
154751
154658
154565
154591
154570
154594
154648
154653
154686
154673
154736
154601
154480
154443
154529
154679
154742
154702
154721
154662
154568
154510
154428
154447
154562
154551
154573
154530
154564
154689
154639
154624
154527
154467
154338
154346
154461
154564
154603
154542
154472
154399
154347
154381
154502
154495
154488
154528
154452
154470
154481
154458
154423
154349
154372
154431
154456
154422
154506
154567
154472
154332
154274
154297
154341
154463
154501
154433
154455
154399
154303
154194
154148
154261
154403
154457
154444
154394
154380
154381
154342
154225
154120
154167
154188
154242
154306
154333
154324
154286
154289
154218
154093
154135
154090
154057
154138
154246
154315
154302
154234
154183
154087
154119
154119
154176
154193
154154
154194
154253
154174
154035
153928
153996
154026
154089
154165
154158
154201
154122
154096
154054
154060
154060
153999
153955
154075
154119
154146
154104
154104
154008
153917
153990
154012
154010
154064
154108
154117
154064
154035
153985
153865
153859
153952
153987
153999
154036
154079
154148
154139
154059
154010
154020
153980
153894
153908
153965
154053
154117
154064
154021
153906
153890
153879
153956
153977
153962
154019
153993
153948
153968
153912
153866
153887
153923
154003
154008
154057
154039
154028
153952
153865
153817
153746
153760
153737
153870
154056
154045
154086
153999
153836
153835
153864
153869
153892
153893
153855
153815
153887
153834
153738
153703
153779
153884
153905
153905
153964
153987
153912
153837
153719
153727
153756
153785
153768
153771
153888
154000
153998
153813
153730
153740
153741
153826
153892
153917
153898
153881
153866
153817
153755
153741
153745
153786
153868
153958
153990
154076
154160
154158
154069
153988
153923
153987
154016
153896
153860
153733
153590
153498
153396
153399
153374
153314
153397
153439
153469
153430
153467
153479
153371
153375
153444
153561
153619
153623
153729
153821
153769
153753
153664
153681
153683
153628
153595
153684
153776
153778
153717
153641
153571
153659
153655
153605
153658
153690
153707
153786
153770
153738
153667
153624
153656
153617
153724
153736
153779
153723
153686
153644
153536
153601
153628
153644
153659
153672
153784
153838
153768
153674
153530
153543
153601
153621
153718
153677
153804
153779
153677
153571
153531
153605
153570
153599
153623
153721
153692
153681
153688
153611
153566
153542
153558
153488
153545
153658
153767
153697
153702
153636
153529
153564
153532
153572
153622
153643
153709
153650
153633
153532
153485
153544
153658
153644
153688
153660
153682
153685
153656
153606
153460
153432
153494
153528
153649
153653
153704
153665
153640
153612
153557
153511
153527
153543
153582
153529
153598
153565
153534
153563
153514
153418
153432
153421
153521
153546
153523
153508
153602
153567
153428
153501
153454
153379
153468
153528
153544
153411
153424
153486
153419
153397
153388
153379
153477
153527
153537
153557
153506
153413
153325
153304
153351
153455
153515
153498
153583
153548
153501
153432
153337
153257
153193
153202
153342
153531
153683
153589
153491
153410
153342
153366
153290
153227
153364
153465
153533
153447
153480
153356
153247
153329
153321
153317
153311
153342
153390
153355
153400
153359
153374
153322
153304
153314
153375
153331
153328
153255
153306
153337
153257
153269
153325
153315
153279
153265
153377
153411
153299
153202
153167
153119
153162
153232
153197
153312
153371
153384
153376
153274
153195
153221
153204
153190
153173
153140
153145
153223
153365
153496
153340
153323
153279
153286
153306
153286
153356
153387
153387
153347
153201
153134
153096
153111
153153
153340
153445
153531
153455
153327
153242
153282
153259
153226
153230
153256
153241
153225
153292
153346
153223
153248
153256
153239
153273
153321
153326
153343
153278
153235
153064
153131
153272
153275
153320
153265
153313
153261
153259
153289
153190
153091
153074
153046
153054
153122
153205
153360
153380
153274
153093
153038
153088
153181
153177
153149
153225
153257
153258
153223
153063
153044
153087
153092
153136
153178
153195
153326
153326
153254
153093
153028
153088
153083
153159
153267
153253
153268
153276
153252
153082
153029
153060
153018
153033
153133
153217
153330
153323
153245
153112
153104
153047
153021
153086
153157
153203
153195
153128
153137
153145
153077
153043
153049
153100
153158
153180
153093
153053
153087
153127
153111
153004
153024
153114
153038
153047
153150
153181
153140
153042
152953
152935
152922
152955
152973
153016
153047
153114
153082
153010
152985
153039
153037
153043
153017
153054
153078
153095
153090
153071
153071
153011
153004
153013
153005
153062
153090
153062
153020
152968
152886
152908
152928
152944
152955
153085
153131
153137
153054
152956
152865
152820
152818
152849
152886
152923
153010
153021
153082
153063
153011
152940
152907
152892
152885
152938
152914
152917
152980
152885
152878
152866
152836
152905
152960
153059
153149
153083
153022
152893
152802
152752
152714
152743
152937
153046
152972
152952
152955
152926
152911
152828
152857
152894
152864
152941
152960
152948
152868
152817
152829
152830
152885
152963
152889
152934
152940
152948
152916
152806
152782
152848
152837
152770
152741
152870
152953
152932
152911
152861
152872
152820
152773
152808
152845
152903
152917
152842
152732
152668
152716
152881
152900
152864
152853
152944
152947
152914
152862
152729
152687
152686
152731
152782
152776
152817
152889
152982
153011
152845
152739
152750
152770
152843
152854
152958
152964
152952
152918
152836
152819
152899
153175
153213
153160
153084
153096
153039
152948
152803
152701
152635
152641
152605
152506
152426
152431
152348
152447
152425
152332
152355
152427
152502
152532
152647
152730
152739
152750
152660
152638
152644
152671
152692
152777
152942
152980
152832
152787
152767
152706
152676
152660
152618
152639
152812
152854
152878
152853
152734
152652
152600
152613
152668
152721
152832
152885
152777
152752
152727
152634
152515
152506
152656
152791
152851
152801
152805
152802
152766
152701
152630
152629
152573
152623
152754
152841
152813
152749
152595
152564
152609
152573
152614
152674
152764
152669
152706
152769
152733
152635
152571
152593
152581
152657
152665
152685
152708
152671
152545
152469
152573
152663
152771
152690
152689
152730
152751
152733
152585
152527
152583
152520
152514
152613
152737
152765
152708
152667
152698
152669
152608
152584
152601
152627
152687
152760
152719
152665
152588
152609
152560
152545
152507
152556
152612
152710
152725
152671
152532
152470
152452
152524
152527
152530
152563
152639
152684
152645
152535
152501
152426
152383
152427
152473
152478
152451
152478
152612
152541
152531
152411
152422
152422
152422
152557
152604
152627
152558
152465
152400
152351
152392
152367
152403
152599
152648
152596
152513
152502
152427
152347
152393
152427
152496
152605
152639
152593
152481
152394
152374
152395
152476
152505
152479
152518
152542
152581
152549
152492
152429
152356
152394
152359
152419
152595
152690
152671
152599
152433
152376
152386
152408
152332
152309
152511
152559
152523
152528
152503
152476
152413
152358
152403
152393
152461
152502
152535
152404
152338
152387
152406
152356
152395
152344
152466
152482
152499
152435
152317
152305
152306
152292
152277
152274
152318
152332
152363
152390
152296
152395
152442
152333
152300
152279
152295
152323
152301
152443
152427
152411
152281
152220
152177
152202
152320
152477
152562
152492
152358
152290
152275
152249
152207
152194
152293
152393
152445
152383
152348
152317
152270
152258
152275
152212
152241
152285
152295
152274
152192
152179
152150
152166
152168
152229
152309
152403
152355
152301
152217
152177
152142
152200
152273
152182
152257
152286
152248
152236
152161
152195
152152
152166
152200
152184
152278
152306
152269
152211
152117
152173
152134
152082
152057
152045
152169
152295
152325
152302
152205
152213
152181
152146
152091
152045
152136
152145
152233
152344
152276
152195
152107
152067
152098
152089
152206
152268
152279
152267
152205
152217
152114
152043
151956
151999
152118
152294
152306
152287
152222
152133
152082
152134
152175
152155
152242
152290
152285
152260
152194
152178
152079
152107
152082
152067
152194
152246
152262
152246
152149
152185
152163
152311
152213
152094
152159
152192
152139
152078
152070
152082
152114
152152
152097
152057
152169
152190
152233
152241
152198
152163
152110
152107
152100
152044
152081
152125
152150
152152
152162
152204
152163
152088
152063
152114
152241
152265
152288
152211
152157
152102
152079
152111
152077
152105
152130
152150
152233
152209
152123
152097
152083
152111
152087
152113
152177
152149
152124
152156
152111
151996
151883
151971
152042
152174
152312
152310
152264
152266
152161
152144
152135
152076
152066
151991
152020
152140
152279
152184
152080
152112
152063
151953
152046
152036
152115
152138
152114
152106
152055
152004
152119
152117
152015
152022
152165
152207
152201
152166
152083
152065
151969
151940
151888
151849
151937
152136
152282
152249
152052
152103
152051
152030
151999
151956
152035
152074
152089
152144
152085
152073
152024
151967
152026
152093
152207
152234
152236
152207
152209
152204
152140
152153
152132
152111
152189
152178
152131
152226
152050
151895
151740
151617
151563
151560
151647
151724
151724
151633
151602
151617
151711
151797
151712
151759
151850
151952
151944
152004
151987
152033
152019
151982
151981
151852
151878
151945
152001
152173
152115
152068
151999
151952
151958
151908
151971
152039
152007
151942
151901
151902
152004
151938
151904
151901
152082
152108
152100
152030
151931
151965
151970
151851
151778
151717
151737
152016
152091
152183
152198
152106
151978
151953
151973
151942
151951
152000
152013
152053
151958
151897
151943
151970
151950
151849
151925
151988
151994
151994
151954
151894
151829
151789
151810
151725
151881
152012
152123
152039
151912
151898
151812
151770
151816
151732
151827
152023
152167
152139
152012
151978
151932
151885
151830
151817
151938
151957
151954
151986
152047
152051
151938
151821
151801
151775
151913
152008
152001
152065
151968
151915
151820
151835
151829
151845
151875
151980
152053
152005
151845
151977
151887
151847
151810
151780
151863
151884
151890
151893
151875
151873
151818
151705
151627
151571
151703
151911
151931
152025
151941
151828
151741
151716
151721
151703
151772
151795
151768
151739
151737
151839
151849
151760
151703
151625
151655
151746
151810
151821
151756
151766
151643
151681
151695
151598
151685
151792
151821
151892
151807
151706
151664
151666
151650
151579
151680
151747
151800
151748
151711
151703
151634
151610
151587
151543
151580
151806
151873
151851
151802
151724
151638
151567
151533
151550
151785
151833
151889
151857
151771
151730
151690
151564
151595
151696
151765
151706
151722
151701
151682
151772
151647
151612
151624
151592
151700
151749
151784
151760
151735
151736
151689
151619
151540
151603
151807
151794
151813
151746
151716
151670
151710
151654
151601
151600
151717
151697
151689
151643
151689
151775
151810
151813
151739
151631
151651
151702
151766
151768
151723
151662
151602
151570
151542
151569
151639
151657
151660
151696
151619
151661
151547
151497
151505
151623
151761
151736
151734
151730
151655
151631
151568
151534
151552
151473
151459
151470
151526
151558
151590
151603
151637
151602
151582
151508
151551
151586
151641
151606
151521
151511
151479
151369
151404
151599
151749
151673
151635
151682
151641
151645
151572
151540
151542
151458
151479
151528
151627
151686
151671
151641
151598
151558
151529
151493
151544
151651
151688
151732
151659
151631
151606
151580
151507
151476
151471
151502
151623
151778
151731
151634
151559
151587
151624
151590
151615
151658
151700
151715
151669
151540
151618
151581
151592
151638
151613
151636
151579
151564
151655
151748
151733
151665
151650
151579
151589
151652
151733
151677
151634
151600
151610
151660
151707
151646
151624
151749
151807
151788
151705
151606
151520
151542
151645
151722
151784
151750
151771
151775
151763
151765
151644
151608
151634
151574
151719
151868
151858
151904
151868
151814
151712
151731
151745
151727
151788
151840
151813
151742
151730
151849
151785
151699
151685
151752
151931
152006
151998
151998
151972
151901
151830
151780
151865
151773
151948
151975
152065
152066
152032
152048
152079
152017
151967
151885
151972
152085
152162
152155
152075
152091
152126
152118
152075
152004
152048
152040
152131
152234
152200
152207
152172
152088
152075
152114
152133
152229
152287
152305
152261
152264
152271
152282
152212
152165
152275
152323
152400
152303
152233
152366
152399
152428
152415
152339
152330
152410
152493
152572
152574
152541
152510
152393
152334
152280
152401
152593
152712
152743
152725
152661
152598
152597
152608
152647
152744
152853
152934
153006
153010
152997
152973
152954
152982
152948
153057
153115
153121
153067
152942
152853
152764
152600
152477
152458
152596
152655
152724
152841
152777
152747
152707
152645
152742
152871
153057
153136
153190
153260
153286
153289
153327
153300
153294
153251
153249
153272
153418
153526
153503
153498
153486
153387
153366
153382
153432
153510
153705
153761
153623
153569
153589
153701
153631
153561
153525
153593
153815
153906
153829
153905
153863
153842
153801
153763
153802
153774
153812
153916
154073
154141
154105
154048
153924
153970
154030
154109
154079
154122
154100
154192
154184
154151
154239
154287
154321
154329
154420
154394
154334
154369
154489
154479
154328
154269
154358
154520
154630
154640
154568
154606
154655
154609
154564
154630
154692
154760
154775
154827
154802
154750
154720
154662
154619
154747
154946
154946
154983
154972
154941
155019
154958
154867
154866
154850
154806
154842
154927
155010
155053
155114
155089
155011
155026
155058
155106
155205
155236
155199
155127
155061
155010
154952
155058
155113
155192
155244
155306
155360
155300
155259
155201
155172
155157
155187
155223
155305
155307
155357
155306
155418
155395
155403
155257
155186
155356
155429
155469
155530
155523
155515
155516
155484
155442
155384
155437
155474
155581
155625
155571
155696
155620
155579
155569
155492
155571
155699
155761
155742
155721
155760
155724
155687
155687
155720
155683
155729
155757
155778
155766
155811
155877
155850
155764
155766
155772
155775
155808
155911
155914
155921
155980
155955
155890
155854
155871
155876
155916
156039
156001
156130
156090
155980
155907
155889
155917
155910
155963
155992
155954
155983
155993
155951
155949
155961
156018
156024
156021
156063
156044
156111
156035
155881
155831
155795
155846
156100
156234
156156
156119
156140
156112
156046
156023
155989
156004
156049
156040
156046
156048
156173
156236
156203
156187
156126
156112
156106
156144
156168
156161
156180
156088
155978
156008
156011
156149
156156
156181
156196
156198
156166
156098
156010
155941
155948
155988
156109
156182
156227
156229
156236
156136
156085
156038
156017
156007
156030
156138
156174
156176
156160
156091
156074
156002
155949
156005
156015
156030
156033
156020
156086
156127
156054
155939
155899
155954
156006
156111
156124
156081
156132
156073
155961
155862
155819
155891
155971
156011
156272
156256
156175
156034
155963
155928
155995
156079
156038
156071
156046
155973
156101
156100
156024
156029
155976
155982
156059
156165
156171
156095
156091
156070
156020
155982
155841
155834
155889
155988
156117
156126
156146
156134
156046
155908
155906
155899
155922
155896
155965
156038
156079
156106
156062
155926
155793
155780
155851
156008
156103
155994
156005
155898
155800
155802
155829
155890
155854
155940
156032
155933
155993
155958
155861
155756
155698
155724
155754
155880
156014
155971
155930
155827
155696
155669
155621
155726
155824
155921
156005
155996
155961
155872
155788
155808
155757
155761
155837
155821
155769
155673
155761
155920
155964
155925
155804
155733
155808
155869
155869
155865
155838
155796
155760
155678
155637
155696
155733
155832
155972
155884
155850
155872
155809
155789
155772
155799
155760
155750
155847
155835
155872
155800
155712
155635
155602
155696
155766
155743
155804
155851
155879
155846
155761
155673
155582
155617
155654
155721
155743
155723
155796
155696
155526
155485
155545
155734
155792
155772
155780
155720
155742
155695
155576
155495
155467
155468
155559
155695
155774
155794
155762
155727
155626
155596
155592
155589
155678
155692
155718
155692
155680
155745
155797
155779
155706
155707
155750
155767
155845
155755
155736
155666
155593
155409
155234
155160
155113
155196
155354
155244
155190
155156
155084
155000
155017
155090
155193
155285
155415
155483
155503
155491
155423
155345
155383
155438
155493
155474
155477
155403
155363
155390
155451
155456
155309
155339
155315
155408
155544
155518
155453
155518
155427
155267
155233
155280
155375
155356
155354
155454
155461
155412
155321
155295
155221
155236
155280
155374
155413
155325
155342
155333
155293
155277
155188
155212
155262
155226
155250
155279
155364
155373
155351
155219
155142
155180
155201
155185
155277
155322
155282
155271
155153
155080
155059
155051
155106
155190
155206
155264
155376
155294
155214
155088
154998
155014
155034
155196
155309
155236
155213
155304
155164
155028
154957
155091
155213
155181
155156
155082
155205
155213
155167
155141
155110
155067
155016
155021
155075
155120
155146
155134
155126
155119
154928
154997
155025
155087
155137
155169
155157
155033
154958
154931
154862
154805
154889
154980
155041
154966
155042
155057
154923
154869
154788
154800
154847
154888
154969
154973
154888
154981
154971
154832
154786
154774
154861
154859
154943
154922
154883
154885
154829
154771
154716
154725
154819
154786
154794
154821
154796
154822
154844
154849
154770
154739
154758
154713
154694
154740
154766
154769
154773
154698
154621
154661
154647
154622
154694
154724
154793
154758
154789
154729
154618
154624
154645
154611
154705
154707
154711
154673
154662
154532
154492
154467
154507
154539
154613
154750
154735
154695
154543
154476
154418
154486
154573
154545
154546
154562
154596
154586
154480
154398
154376
154467
154438
154424
154492
154555
154598
154546
154448
154354
154308
154348
154305
154347
154449
154428
154386
154399
154337
154346
154331
154452
154398
154392
154498
154486
154516
154542
154484
154379
154285
154279
154348
154356
154389
154393
154368
154357
154323
154277
154231
154166
154347
154397
154389
154371
154366
154341
154292
154212
154210
154265
154227
154214
154271
154360
154376
154339
154263
154226
154142
154124
154131
154186
154215
154250
154270
154245
154204
154097
154042
154046
154029
154002
154058
154191
154347
154370
154246
154146
154038
154042
154023
154028
154118
154066
154066
154147
154226
154190
153953
153991
154074
154124
154189
154139
154155
154128
154048
154022
153980
154071
154090
154090
154135
154161
154192
154157
154124
154034
153952
154010
153956
153942
154102
154125
154214
154201
154084
154006
153875
153931
153977
153984
154074
154084
154027
154052
154035
154019
153953
153933
153917
153991
154023
154017
154031
154073
154031
153959
153885
153824
153818
153892
154005
154121
154099
154069
154053
153957
153807
153814
153811
153846
153902
153954
154022
154113
154062
153955
153847
153853
153873
153895
153915
153903
154013
154048
154031
153969
153871
153852
153857
153867
153952
154027
154073
153992
153929
153893
153837
153788
153874
153967
153999
154012
154017
153961
153890
153825
153748
153825
153920
153967
153973
153955
153983
153994
153977
153899
153767
153744
153751
153838
153921
153911
153962
153950
153934
153862
153786
153814
153757
153782
153892
154050
154043
154033
153978
153920
153840
153761
153755
153804
153843
153894
154001
154010
153971
153867
153713
153678
153732
153861
153954
153932
153919
153880
153884
153857
153773
153740
153751
153776
153843
153848
153982
153952
153884
153836
153699
153706
153728
153824
153889
153928
153963
153976
153918
153847
153748
153797
153760
153847
153903
153967
154034
154011
154002
153935
153769
153754
153790
153833
153950
153993
154108
154250
154172
154089
154009
154028
154104
154096
154068
154044
154081
154137
154239
154055
153832
153735
153744
153691
153636
153573
153602
153553
153423
153417
153441
153529
153546
153596
153693
153721
153822
153898
153942
153856
153793
153781
153806
153877
153949
153916
153960
154016
153924
153930
153836
153842
153814
153866
153998
153988
154007
154035
154031
153985
153949
153910
153838
153821
153892
153987
154142
154071
154015
153991
153933
153959
153997
154049
154065
154168
154234
154092
154011
153948
153945
154120
154087
153989
154085
154127
154189
154192
154105
154035
153964
153945
153955
153980
154025
154131
154269
154296
154197
154093
153971
153993
154090
154062
154055
154121
154222
154159
154173
154099
154043
154088
154051
154040
154111
154165
154211
154217
154206
154113
154016
154069
154115
154152
154215
154246
154260
154225
154215
154208
154134
154080
154115
154064
154075
154134
154189
154353
154436
154357
154166
154103
154113
154139
154118
154091
154116
154106
154261
154214
154164
154178
154201
154188
154238
154223
154241
154185
154159
154233
154170
154129
154133
154156
154209
154219
154204
154251
154228
154244
154175
154103
154153
154210
154226
154179
154211
154266
154230
154148
154005
154018
154200
154270
154268
154300
154273
154255
154277
154250
154197
154154
154118
154118
154169
154252
154320
154441
154342
154249
154129
154104
154130
154158
154298
154302
154331
154338
154263
154158
154071
154063
154075
154083
154155
154188
154329
154392
154341
154262
154189
154163
154153
154127
154235
154268
154295
154268
154231
154178
154089
154098
154113
154107
154121
154207
154270
154259
154286
154321
154270
154209
154153
154148
154203
154242
154269
154252
154200
154096
154037
154104
154203
154152
154166
154222
154349
154306
154228
154209
154168
154129
154170
154182
154295
154206
154232
154160
154130
154098
154026
154205
154252
154263
154251
154217
154268
154259
154289
154253
154094
154045
154126
154204
154194
154245
154304
154234
154242
154151
154033
154115
154186
154158
154177
154170
154226
154252
154238
154133
154011
154038
154022
153987
153970
153985
154147
154229
154334
154218
154114
154057
154028
154005
154020
153972
154085
154182
154179
154089
154013
154018
153992
153990
153991
154029
154159
154219
154149
154078
154033
153982
153973
153905
153920
153984
154115
154154
154136
154110
153964
153902
153912
153929
153996
153964
153950
154029
154077
154078
153963
153920
153868
153874
153942
154095
154107
154080
154018
153935
153848
153909
153951
153892
153930
153943
154021
153994
154008
154036
153954
153952
153877
153890
154005
154048
154022
154028
154035
153946
153777
153810
153805
153846
153916
153894
153996
153974
153885
153824
153793
153911
153900
153824
153844
153903
153930
153903
153959
153966
153850
153768
153731
153763
153860
153842
153906
153942
153965
153930
153804
153749
153704
153804
153850
153867
153964
153865
153759
153706
153737
153834
153903
153834
153801
153768
153848
153821
153911
153928
153874
153798
153733
153670
153692
153754
153916
153967
153908
153798
153709
153702
153645
153648
153720
153803
153939
153940
153903
153826
153686
153664
153671
153698
153734
153694
153744
153709
153775
153912
153867
153759
153718
153704
153747
153734
153781
153731
153757
153717
153742
153797
153780
153735
153700
153725
153752
153772
153817
153875
153758
153651
153621
153618
153612
153671
153777
153754
153726
153557
153471
153510
153664
153704
153771
153723
153768
153761
153708
153671
153575
153571
153508
153504
153549
153546
153623
153664
153639
153600
153554
153509
153474
153557
153630
153603
153664
153700
153690
153575
153621
153636
153557
153531
153523
153584
153763
153900
153872
153746
153676
153731
153667
153655
153616
153557
153570
153453
153408
153333
153158
153126
153090
153055
153058
153081
153120
153172
153218
153238
153246
153254
153235
153282
153296
153292
153426
153593
153610
153568
153429
153324
153378
153513
153470
153382
153444
153463
153483
153498
153395
153407
153445
153475
153382
153390
153471
153474
153504
153600
153429
153318
153310
153379
153456
153408
153472
153537
153568
153588
153451
153380
153326
153325
153342
153470
153562
153508
153537
153524
153414
153417
153391
153402
153359
153355
153472
153524
153507
153465
153282
153317
153381
153346
153343
153409
153500
153526
153480
153424
153335
153286
153275
153311
153397
153404
153465
153499
153576
153530
153408
153353
153292
153208
153227
153319
153472
153486
153478
153433
153337
153301
153297
153261
153276
153293
153385
153469
153425
153378
153369
153333
153239
153284
153317
153269
153396
153469
153430
153378
153256
153189
153161
153181
153362
153335
153433
153471
153402
153375
153256
153256
153235
153411
153334
153284
153368
153344
153284
153297
153273
153275
153205
153159
153179
153297
153336
153347
153379
153387
153249
153183
153183
153229
153274
153192
153225
153359
153374
153338
153285
153233
153196
153160
153058
153092
153302
153348
153347
153339
153314
153203
153145
153124
153164
153211
153273
153256
153265
153226
153184
153161
153096
153104
153140
153206
153330
153313
153257
153177
153195
153194
153149
153079
153074
153164
153221
153227
153293
153298
153198
153170
153079
153092
153041
153072
153190
153307
153247
153249
153140
153115
153012
153017
153065
153132
153276
153221
153166
153133
153055
153127
153109
153020
153054
153087
153188
153271
153277
153253
153188
153116
152957
152915
153020
153216
153374
153329
153272
153289
153240
153174
153061
153016
153086
153173
153156
153230
153253
153252
153197
153109
153070
153061
153070
153117
153174
153315
153315
153218
153122
153081
153082
153098
153063
153048
153092
153140
153240
153206
153159
153104
153022
153024
153045
153049
153151
153165
153194
153211
153094
153010
152997
153054
152992
153000
153122
153197
153147
153118
152985
152936
153032
153063
152980
153046
153113
153119
153059
153023
152975
153009
153058
153071
153031
153052
153044
152993
153001
153059
153083
153062
152985
152966
152959
152998
153074
153101
153079
153062
152946
152968
152933
152957
153021
153040
153169
153095
153045
153052
153054
153026
152949
152913
152893
152909
152969
153000
153011
153035
152950
152894
152892
152946
153031
153033
152983
153012
153057
153075
153071
153044
152926
152869
152930
152940
152993
153068
153100
153039
152958
152889
152870
152990
152943
152954
153079
153056
152951
152958
152925
152893
152933
153005
152947
152828
152838
152935
153025
153165
153015
152877
152887
152911
152895
152855
152893
152961
152999
153092
153082
152941
152793
152792
152826
152874
152994
153051
152957
152988
153021
152991
152939
152891
152907
152839
152890
152967
152961
152969
152859
152854
152908
152869
152946
152896
152977
153034
153117
153136
153006
152946
152885
152839
152839
152883
152852
153021
153082
153110
153079
153072
152957
152864
152881
152874
152946
153023
153067
153004
152855
152812
152762
152855
152854
152823
152939
152939
152944
152910
152868
152787
152727
152692
152680
152692
152897
152971
152929
152910
152815
152799
152787
152790
152792
152779
152855
152898
152938
152951
152885
152806
152741
152746
152792
152814
152844
152934
152948
152884
152933
152896
152838
152810
152814
152806
152902
152975
153028
153056
153059
153029
153017
152934
152882
152938
153018
153181
153074
152967
152791
152699
152539
152417
152401
152326
152471
152501
152478
152508
152441
152483
152475
152434
152501
152540
152648
152726
152837
152843
152789
152760
152645
152681
152714
152641
152700
152795
152841
152870
152760
152743
152788
152874
152872
152775
152816
152872
152827
152827
152772
152724
152684
152699
152770
152713
152810
152877
152860
152791
152764
152767
152787
152775
152719
152700
152713
152755
152806
152870
152858
152880
152777
152686
152635
152594
152754
152907
153029
152911
152771
152751
152750
152753
152747
152703
152750
152760
152819
152861
152774
152741
152656
152621
152625
152633
152702
152770
152892
152851
152771
152737
152688
152856
152832
152746
152779
152847
152871
152853
152782
152744
152753
152770
152686
152672
152729
152890
152904
152870
152764
152683
152634
152761
152796
152705
152743
152735
152745
152783
152719
152667
152632
152666
152729
152696
152732
152793
152818
152809
152757
152653
152578
152580
152596
152535
152629
152733
152773
152724
152665
152646
152609
152590
152618
152606
152639
152660
152704
152769
152746
152756
152726
152650
152643
152634
152658
152728
152703
152711
152796
152834
152804
152662
152606
152600
152693
152800
152806
152796
152793
152736
152655
152713
152684
152567
152610
152717
152837
152831
152754
152674
152664
152660
152682
152644
152687
152766
152799
152858
152848
152788
152669
152583
152517
152565
152719
152862
152850
152786
152823
152825
152769
152638
152616
152559
152631
152769
152887
152876
152796
152705
152618
152688
152749
152745
152841
152826
152812
152840
152757
152665
152587
152529
152539
152518
152634
152778
152934
152860
152818
152771
152637
152583
152575
152555
152618
152674
152692
152814
152758
152776
152691
152654
152727
152654
152651
152778
152821
152819
152760
152812
152767
152726
152723
152683
152760
152779
152833
152852
152778
152759
152744
152721
152665
152633
152662
152732
152845
152800
152752
152742
152715
152671
152639
152641
152667
152689
152750
152720
152735
152724
152816
152731
152659
152585
152652
152682
152707
152656
152612
152635
152593
152617
152637
152669
152715
152744
152817
152784
152667
152653
152628
152637
152675
152661
152730
152811
152852
152863
152803
152743
152742
152633
152638
152666
152785
152780
152784
152856
152745
152649
152604
152560
152707
152761
152865
152928
152880
152844
152822
152805
152789
152711
152713
152707
152755
152722
152754
152869
152921
152948
152894
152783
152773
152740
152841
152852
152862
152879
152793
152781
152743
152676
152724
152753
152723
152700
152739
152815
152875
152898
152807
152754
152719
152634
152719
152842
152857
152907
152855
152837
152737
152694
152717
152795
152823
152791
152915
152885
152906
152896
152808
152785
152801
152767
152779
152855
152895
152968
152893
152848
152833
152759
152866
152880
152892
152966
152987
152914
152877
152888
152870
152822
152779
152814
152877
152960
152981
153048
153041
152978
152873
152763
152761
152830
153039
153066
153096
153033
152975
152964
152959
152983
152929
152896
152924
152985
153087
153109
153056
153075
153017
152948
152880
152850
152897
152958
153049
153157
153076
153047
153072
153055
153044
152972
152970
153006
153046
153051
152960
152943
152997
152965
152921
152875
152886
152927
152945
152969
153062
153001
153046
152988
152885
152834
152839
152925
153034
153140
153099
153110
153001
152912
152880
152913
152971
153020
153029
153059
153016
152967
153015
152974
152972
152906
152902
153003
153096
153162
153105
153139
153144
153046
153079
153130
153263
153333
153256
153234
153269
153300
153269
153167
153073
152976
152973
152975
153015
152899
152746
152757
152719
152689
152674
152587
152652
152812
152925
152896
152936
152997
152956
152938
152957
152886
152993
153142
153196
153227
153170
153137
153143
153092
153058
152951
153020
153110
153192
153158
153111
153104
153145
153162
153043
152959
152960
153071
153157
153238
153183
153094
153068
153077
153073
153075
153067
153119
153187
153249
153206
153158
153164
153143
153082
153095
153087
153137
153236
153217
153261
153277
153186
153136
153072
153060
153091
153119
153198
153224
153259
153269
153184
153086
153079
153042
153096
153215
153258
153328
153336
153363
153245
153192
153168
153053
153021
153146
153334
153472
153443
153407
153304
153213
153167
153114
153231
153341
153387
153439
153356
153303
153301
153243
153302
153238
153214
153274
153411
153451
153443
153416
153327
153238
153148
153145
153242
153435
153454
153504
153399
153353
153346
153246
153211
153116
153192
153277
153401
153554
153511
153422
153356
153289
153274
153219
153285
153302
153434
153435
153373
153454
153436
153370
153256
153241
153323
153439
153413
153473
153400
153443
153486
153445
153327
153257
153244
153404
153584
153616
153610
153576
153495
153388
153351
153308
153360
153458
153494
153497
153462
153528
153575
153527
153435
153471
153515
153523
153579
153588
153534
153613
153534
153489
153438
153498
153500
153452
153520
153620
153564
153677
153571
153501
153543
153573
153569
153528
153515
153558
153571
153629
153524
153445
153458
153484
153521
153539
153578
153570
153552
153583
153476
153438
153416
153380
153403
153468
153494
153514
153379
153445
153336
153271
153265
153309
153466
153445
153479
153486
153456
153442
153366
153310
153229
153194
153276
153349
153390
153411
153465
153570
153476
153391
153399
153317
153360
153441
153519
153511
153506
153453
153403
153210
153349
153462
153458
153494
153515
153584
153508
153519
153399
153225
153203
153289
153506
153577
153600
153564
153491
153587
153574
153461
153429
153363
153450
153516
153533
153579
153513
153544
153535
153530
153514
153492
153471
153555
153623
153689
153690
153607
153607
153535
153491
153502
153570
153544
153577
153654
153623
153709
153624
153565
153509
153495
153498
153537
153579
153661
153649
153664
153623
153522
153490
153486
153558
153582
153592
153705
153620
153666
153672
153563
153536
153483
153512
153593
153788
153798
153691
153696
153649
153576
153460
153435
153515
153631
153789
153816
153729
153750
153693
153673
153605
153562
153553
153588
153659
153708
153685
153624
153555
153587
153559
153530
153560
153614
153641
153690
153809
153845
153787
153702
153587
153524
153556
153579
153661
153693
153697
153768
153718
153669
153585
153577
153627
153679
153723
153721
153690
153720
153649
153505
153480
153552
153614
153734
153711
153673
153665
153731
153677
153632
153611
153552
153565
153581
153619
153614
153651
153660
153697
153703
153644
153604
153619
153665
153709
153726
153690
153718
153635
153515
153484
153568
153534
153562
153610
153641
153688
153701
153704
153630
153540
153416
153426
153488
153507
153576
153594
153739
153709
153607
153517
153471
153432
153554
153636
153710
153661
153644
153568
153513
153439
153453
153534
153513
153649
153701
153643
153652
153607
153534
153453
153386
153409
153476
153598
153639
153668
153757
153798
153757
153762
153703
153744
153808
153769
153865
153781
153748
153649
153463
153346
153285
153324
153304
153194
153191
153206
153162
153175
153131
153132
153105
153210
153237
153257
153421
153476
153548
153496
153468
153495
153407
153471
153524
153579
153678
153569
153518
153545
153499
153510
153415
153552
153635
153656
153636
153606
153657
153615
153544
153496
153413
153460
153425
153463
153522
153576
153639
153697
153630
153538
153533
153544
153515
153578
153597
153517
153446
153448
153569
153643
153647
153623
153581
153601
153628
153624
153615
153640
153568
153492
153404
153402
153398
153480
153738
153876
153789
153659
153536
153463
153383
153438
153535
153532
153574
153553
153547
153592
153522
153517
153506
153557
153495
153531
153554
153665
153746
153604
153529
153535
153451
153454
153472
153595
153622
153560
153570
153630
153623
153568
153588
153615
153592
153644
153704
153670
153651
153669
153633
153556
153439
153405
153544
153587
153607
153603
153726
153763
153633
153581
153549
153533
153591
153585
153669
153625
153725
153680
153546
153507
153516
153575
153550
153476
153515
153589
153637
153602
153486
153444
153362
153413
153526
153669
153637
153579
153582
153581
153548
153480
153352
153415
153455
153630
153602
153490
153572
153619
153555
153409
153388
153407
153373
153385
153470
153457
153536
153608
153544
153456
153402
153408
153432
153476
153520
153451
153393
153473
153539
153535
153422
153436
153441
153489
153528
153487
153530
153551
153455
153418
153378
153334
153330
153411
153429
153452
153517
153569
153400
153295
153350
153453
153470
153434
153479
153404
153400
153307
153261
153293
153320
153505
153508
153461
153494
153499
153496
153422
153375
153341
153211
153319
153405
153351
153396
153412
153495
153520
153519
153391
153314
153262
153218
153272
153314
153321
153275
153322
153331
153363
153327
153347
153347
153368
153366
153332
153343
153390
153334
153323
153295
153214
153311
153345
153424
153382
153392
153381
153375
153214
153120
153141
153198
153342
153405
153343
153323
153261
153238
153247
153241
153269
153212
153249
153280
153331
153248
153238
153297
153342
153230
153179
153219
153247
153240
153306
153320
153320
153271
153207
153186
153198
153181
153197
153300
153289
153290
153281
153293
153209
153077
153076
153104
153161
153312
153313
153379
153248
153205
153174
153108
153225
153270
153274
153324
153266
153240
153241
153271
153266
153216
153227
153191
153184
153234
153295
153314
153352
153249
153192
153079
153127
153136
153193
153191
153253
153329
153264
153363
153190
153072
153035
153173
153207
153319
153327
153363
153316
153227
153154
153105
153092
153057
153156
153306
153373
153364
153323
153235
153170
153071
153072
153053
153149
153179
153227
153283
153297
153168
153115
153125
153157
153082
153203
153275
153260
153311
153309
153222
153181
153073
153010
153009
153109
153261
153323
153373
153294
153204
153113
153044
153008
153070
153131
153251
153346
153298
153301
153269
153240
153162
153141
153190
153232
153254
153243
153305
153254
153230
153188
153038
153102
153203
153149
153131
153131
153204
153268
153202
153133
153073
153150
153231
153207
153235
153194
153250
153272
153264
153161
153047
153137
153167
153104
153164
153182
153234
153265
153259
153150
153028
153099
153175
153247
153253
153332
153421
153383
153317
153207
153094
153114
153128
153167
153291
153319
153287
153268
153302
153235
153117
153061
153084
153206
153270
153297
153339
153263
153239
153228
153147
153169
153084
153010
153147
153175
153380
153456
153371
153303
153239
153182
153134
153109
153142
153251
153298
153365
153441
153356
153231
153224
153215
153206
153232
153283
153293
153334
153411
153407
153282
153246
153296
153359
153492
153655
153700
153591
153559
153467
153439
153459
153368
153377
153338
153265
153222
153130
153001
152938
152912
152899
152870
152886
153014
153054
153119
153113
153083
153126
153043
153096
153153
153224
153272
153350
153388
153389
153352
153301
153192
153204
153298
153292
153375
153426
153390
153373
153408
153370
153378
153338
153308
153277
153423
153442
153462
153496
153417
153312
153263
153365
153437
153450
153452
153485
153480
153529
153509
153418
153291
153308
153392
153447
153486
153465
153500
153565
153521
153383
153293
153305
153413
153566
153651
153622
153608
153529
153445
153405
153391
153462
153500
153571
153634
153618
153584
153552
153574
153579
153490
153456
153437
153356
153380
153575
153823
153860
153715
153625
153546
153535
153505
153513
153553
153617
153732
153733
153641
153594
153584
153611
153656
153632
153660
153677
153675
153657
153660
153592
153579
153623
153580
153694
153844
153817
153824
153816
153754
153734
153596
153569
153617
153610
153674
153735
153868
153854
153775
153757
153681
153608
153600
153661
153739
153775
153761
153775
153804
153825
153729
153675
153676
153661
153718
153739
153862
153948
153814
153735
153622
153688
153747
153634
153640
153835
153990
153905
153819
153755
153651
153779
153796
153786
153770
153783
153903
153945
153909
153813
153671
153663
153790
153797
153801
153829
153877
153907
153870
153797
153647
153605
153696
153713
153789
153898
154038
154066
153983
153896
153774
153727
153757
153740
153770
153799
153990
153996
153896
153861
153780
153789
153818
153821
153855
153851
153884
153845
153861
153966
153870
153847
153783
153762
153865
153987
154022
153974
153870
153791
153816
153773
153767
153845
153985
154003
154007
154006
153853
153752
153766
153857
153921
153916
153946
153924
153957
154010
154028
153933
153843
153844
153866
153859
153882
153941
153948
153992
154045
153994
153849
153795
153785
153778
153866
153971
154027
153971
153969
153929
153822
153869
153871
153841
153925
153874
153978
154063
154048
153923
153837
153879
153916
153927
153903
153900
153986
153986
153985
153927
153884
153880
153829
153829
153869
153910
153929
153887
153948
153896
153802
153822
153861
153926
153900
153867
153945
153931
153873
153860
153806
153750
153845
153904
153883
153970
153992
153951
153941
153920
153826
153773
153835
153819
153867
153892
153961
153991
153979
153941
153850
153828
153845
153872
153852
153898
153983
154020
153940
153883
153773
153793
153818
153858
153886
153959
154079
154070
154049
153948
153918
153941
153877
153803
153820
153983
154119
154148
154117
154001
153908
153857
153866
153930
153953
153974
154075
154052
154014
153982
153900
153873
153844
153802
153900
154050
154163
154106
154062
154034
153892
153812
153840
153921
153961
153946
154037
154112
154123
154082
153919
153926
153934
153900
153954
153988
154093
154118
154075
154000
153906
153898
153941
153985
154014
154023
154008
154049
154048
154014
153906
153806
153843
153906
153984
154057
154081
154153
154144
154071
153999
153931
153955
153976
153996
154019
154130
154129
153989
153968
153986
153952
153932
153924
153964
154015
154106
154163
154087
154068
153977
153889
153847
153863
153934
153918
153873
153858
153912
154078
154046
154074
153945
153890
153922
153960
154025
154027
154017
154042
153933
153912
154001
153967
153917
153933
154026
154070
154083
154029
153961
153866
153898
153902
153896
153912
153989
153949
153959
154006
153928
153955
153940
153918
153920
154027
154203
154320
154315
154241
154271
154182
154080
154052
154001
153997
153903
153853
153825
153774
153639
153553
153459
153403
153484
153594
153725
153655
153682
153762
153760
153677
153653
153730
153904
153985
154044
154040
153982
154044
153973
153892
153873
153868
153842
153920
154053
154073
154131
154113
154048
153950
153935
153868
153900
153929
154034
154042
154010
153947
153896
153849
153753
153780
153885
153946
154027
154097
154060
154053
154048
153979
153977
154003
153949
153954
154027
154057
154052
153990
153906
153886
153840
153852
153911
153997
154080
154060
153994
153934
153862
153902
153928
153861
153822
153887
153919
153969
154037
154017
153897
153809
153783
153905
153944
153959
154013
154071
153969
153950
153940
153934
153887
153827
153883
153888
153936
153954
153968
154012
153945
153900
153860
153788
153823
153869
153981
154030
154053
154047
153932
153838
153805
153822
153781
153837
154007
154080
154095
154042
153883
153806
153787
153853
153911
153854
153948
153969
153942
153876
153776
153877
153969
153896
153898
153876
153896
153916
153890
153887
153854
153829
153837
153828
153829
153826
153851
153831
153876
153897
153884
153888
153887
153772
153769
153833
153898
153986
154006
153950
153834
153774
153716
153741
153759
153791
153885
153978
153948
153934
153941
153848
153812
153729
153738
153783
153824
153835
153836
153904
153912
153856
153801
153790
153814
153842
153896
153940
153860
153755
153691
153746
153732
153727
153786
153820
153898
153938
153919
153912
153804
153717
153699
153641
153691
153728
153884
153979
153881
153845
153711
153671
153695
153681
153717
153785
153871
153920
153870
153834
153758
153700
153642
153578
153583
153647
153833
153786
153741
153763
153758
153776
153754
153687
153620
153597
153737
153861
153849
153747
153650
153639
153578
153630
153680
153775
153830
153853
153865
153837
153685
153698
153703
153668
153648
153562
153674
153727
153746
153715
153656
153670
153643
153584
153611
153629
153777
153808
153762
153819
153722
153642
153684
153665
153673
153620
153598
153683
153758
153768
153615
153562
153648
153597
153652
153647
153646
153639
153658
153687
153701
153682
153646
153642
153588
153566
153704
153781
153822
153772
153636
153598
153513
153453
153450
153545
153741
153780
153709
153659
153625
153690
153675
153667
153615
153586
153614
153690
153688
153733
153698
153661
153704
153664
153682
153639
153676
153726
153706
153754
153710
153558
153496
153576
153539
153555
153614
153692
153677
153679
153636
153528
153560
153611
153581
153528
153558
153739
153806
153676
153645
153603
153467
153385
153452
153548
153801
153788
153756
153795
153666
153611
153531
153490
153462
153458
153520
153521
153515
153486
153507
153580
153577
153484
153449
153529
153661
153692
153639
153592
153533
153446
153334
153247
153345
153452
153525
153611
153660
153543
153510
153471
153395
153420
153418
153407
153402
153433
153397
153428
153470
153432
153396
153372
153383
153426
153472
153523
153486
153404
153307
153226
153341
153484
153449
153424
153444
153498
153591
153490
153389
153439
153447
153407
153343
153298
153391
153499
153567
153514
153449
153411
153300
153265
153216
153307
153476
153460
153478
153472
153497
153463
153352
153370
153431
153354
153379
153451
153436
153430
153365
153349
153273
153217
153234
153270
153380
153452
153495
153495
153383
153270
153272
153239
153287
153330
153392
153462
153459
153464
153360
153294
153268
153257
153272
153254
153360
153505
153488
153523
153467
153414
153396
153353
153365
153329
153368
153479
153583
153593
153678
153652
153544
153537
153470
153472
153517
153480
153400
153276
153149
153079
152954
152899
152939
152891
152921
152989
153111
153076
153119
153177
153145
153033
153033
153103
153235
153280
153332
153366
153375
153382
153379
153391
153383
153255
153276
153325
153408
153340
153244
153234
153375
153345
153275
153272
153365
153434
153426
153385
153311
153312
153243
153180
153203
153199
153194
153248
153228
153368
153390
153409
153277
153208
153244
153188
153290
153328
153305
153318
153317
153453
153305
153272
153252
153209
153320
153375
153361
153333
153349
153324
153248
153200
153177
153089
153191
153399
153432
153382
153312
153322
153265
153202
153179
153094
153144
153280
153477
153494
153368
153227
153213
153194
153203
153259
153310
153290
153263
153310
153343
153350
153320
153254
153220
153165
153223
153354
153450
153430
153337
153278
153305
153238
153170
153153
153234
153379
153408
153384
153385
153314
153196
153095
153084
153182
153413
153428
153369
153318
153267
153276
153223
153122
153079
153098
153248
153332
153301
153342
153295
153280
153198
153139
153164
153105
153097
153141
153264
153314
153220
153168
153091
153022
153027
153022
153057
153077
153093
153240
153196
153268
153248
153150
153105
153080
153127
153159
153198
153227
153209
153196
153074
153010
153064
153049
153132
153219
153211
153248
153166
153104
153128
153091
153016
153031
153067
153102
153130
153110
153058
153104
153050
153028
153045
153096
153085
153112
153130
153123
153088
153020
153079
153048
153058
152981
152970
153020
153028
153123
153142
153105
153088
153043
153070
153027
153063
153051
153059
153070
153009
153042
153025
152934
152979
152883
152980
153086
153089
153096
153053
153068
153107
153064
153006
152934
153008
153080
153147
153162
153185
153160
153080
153002
153009
152954
153008
152992
153002
153055
153117
153162
153049
152961
152991
153020
153000
153042
153064
153035
152904
152950
152997
153017
152963
152935
153033
153030
153016
152931
152856
152866
152999
153106
153111
153024
153096
153127
153121
153066
152980
152965
152967
152890
152872
152890
153038
153068
153087
153022
152884
152834
152811
152868
152953
152894
152903
152983
153075
153074
153004
152966
152896
152837
152838
152766
152827
152886
152944
152998
152914
152909
152817
152758
152745
152782
152861
153002
152981
152989
152875
152800
152792
152791
152832
152804
152790
152856
152926
152975
152893
152892
152911
152871
152773
152737
152782
152776
152837
152868
152812
152848
152770
152685
152781
152763
152833
152890
152852
152780
152779
152796
152738
152624
152649
152559
152603
152730
152799
152848
152776
152743
152668
152624
152600
152558
152617
152617
152704
152702
152697
152678
152641
152609
152634
152573
152567
152668
152613
152581
152563
152662
152829
152694
152568
152521
152598
152684
152715
152700
152643
152675
152562
152464
152526
152573
152593
152567
152668
152792
152742
152622
152553
152559
152478
152424
152453
152590
152709
152684
152586
152535
152485
152582
152583
152487
152529
152541
152587
152572
152557
152688
152692
152698
152556
152491
152559
152625
152674
152641
152602
152627
152597
152596
152495
152473
152479
152514
152600
152656
152616
152602
152486
152387
152340
152312
152399
152447
152494
152493
152446
152370
152392
152396
152482
152470
152485
152473
152512
152467
152445
152446
152451
152443
152309
152287
152373
152447
152539
152560
152484
152457
152385
152323
152272
152266
152387
152512
152515
152479
152455
152455
152450
152428
152376
152197
152309
152507
152636
152791
152718
152706
152636
152525
152496
152527
152540
152548
152514
152478
152404
152248
152093
151929
151864
151832
152028
152132
152188
152185
152193
152253
152256
152175
152117
152176
152286
152368
152466
152505
152481
152531
152525
152459
152372
152392
152455
152561
152611
152553
152503
152489
152445
152403
152393
152332
152343
152446
152593
152596
152573
152673
152582
152482
152467
152432
152478
152510
152503
152558
152505
152546
152626
152568
152564
152546
152561
152556
152585
152572
152579
152625
152587
152554
152473
152385
152373
152465
152669
152677
152647
152675
152615
152522
152499
152355
152452
152540
152554
152568
152499
152537
152495
152521
152567
152400
152323
152374
152486
152626
152509
152490
152543
152527
152423
152446
152519
152513
152590
152587
152536
152513
152408
152357
152352
152358
152410
152456
152506
152555
152669
152692
152509
152424
152416
152355
152389
152417
152479
152412
152514
152678
152576
152497
152410
152374
152412
152455
152600
152589
152507
152473
152474
152414
152434
152510
152470
152441
152415
152524
152497
152483
152392
152392
152352
152401
152411
152429
152375
152357
152275
152310
152443
152474
152334
152302
152283
152355
152330
152347
152410
152471
152349
152315
152218
152174
152255
152365
152415
152444
152407
152349
152315
152282
152292
152295
152278
152260
152298
152350
152379
152384
152372
152333
152283
152316
152280
152332
152419
152454
152407
152400
152351
152264
152188
152223
152239
152241
152278
152420
152446
152460
152409
152272
152213
152192
152266
152312
152320
152339
152316
152348
152370
152228
152185
152234
152304
152329
152320
152300
152260
152359
152362
152277
152203
152147
152186
152187
152217
152259
152182
152365
152514
152392
152290
152225
152249
152274
152281
152308
152370
152426
152363
152223
152211
152177
152228
152341
152403
152456
152357
152267
152207
152181
152153
152150
152294
152246
152251
152299
152280
152379
152400
152308
152220
152170
152204
152280
152263
152298
152254
152247
152257
152200
152163
152134
152124
152186
152243
152233
152202
152238
152206
152183
152132
152035
152147
152222
152290
152278
152258
152214
152165
152085
152096
152139
152196
152134
152187
152202
152115
152205
152171
152203
152225
152161
152097
152150
152198
152245
152272
152211
152214
152214
152141
152054
152084
152188
152204
152206
152194
152223
152166
152117
152175
152132
152149
152148
152214
152302
152277
152237
152220
152132
152087
152216
152239
152223
152307
152330
152299
152273
152254
152138
152092
152125
152149
152171
152260
152267
152237
152246
152185
152008
152012
152028
152049
152120
152213
152260
152202
152251
152266
152213
152152
152093
152083
152110
152121
152182
152169
152199
152194
152092
152031
151982
152058
152117
152149
152260
152214
152275
152250
152153
152115
152007
152046
152138
152156
152260
152184
152172
152094
152091
152133
152152
152151
152155
152221
152224
152160
152183
152137
152048
152096
152036
152018
152175
152275
152272
152177
152200
152181
152177
152146
152084
152117
152107
152065
152109
152153
152196
152119
152040
152074
152003
151984
151999
152074
152153
152156
152153
152166
152056
151999
151998
152035
152080
152125
152201
152192
152221
152183
152023
152035
152107
152107
152027
152111
152077
152084
152138
152123
152188
152176
152117
152114
152143
152205
152268
152237
152254
152233
152257
152243
152254
152313
152288
152295
152317
152396
152423
152340
152188
151997
151901
151860
151794
151749
151726
151703
151641
151637
151621
151636
151672
151796
151897
151917
151915
151965
152013
152066
152014
151992
151948
152014
152083
152172
152246
152234
152214
152163
152128
152070
152020
152028
152120
152159
152177
152190
152188
152192
152089
152012
151917
151990
152138
152306
152269
152161
152169
152131
152021
151994
152126
152198
152193
152242
152260
152243
152231
152203
152112
152004
152017
152104
152119
152067
152175
152201
152250
152222
152105
152060
152011
151995
151980
152001
152204
152251
152188
152247
152234
152145
152062
152100
152158
152132
152117
152099
152132
152203
152159
152060
152085
152075
152096
152174
152201
152205
152210
152149
152048
152055
152074
152107
152030
152084
152260
152228
152205
152171
152183
152223
152210
152137
152103
152147
152170
152244
152286
152265
152210
152097
152087
152106
152136
152167
152209
152112
152112
152120
152143
152086
152122
152152
152125
152128
152191
152170
152210
152175
152066
151995
151965
152029
152032
152009
152213
152181
152241
152160
152082
152014
151930
151978
152062
152126
152176
152143
152106
152100
152043
152032
151967
151957
152011
152056
152062
152099
152046
152008
151995
151942
151874
151942
152000
152110
152108
151994
152013
152101
152105
152008
151908
151933
151933
152032
152052
152093
152143
152071
152052
151995
151918
151901
151934
151949
152041
152067
152069
152094
152048
152035
151949
151931
151974
151945
151960
152026
152168
152111
151968
151941
151941
152102
152079
152028
152052
151967
152020
151977
152011
152021
151994
151992
152029
152027
152046
152009
151991
151995
151965
151967
151986
151993
152021
152072
152058
151986
152024
151991
151927
152007
151923
151920
151908
152014
152093
152056
152057
152029
152012
151980
151919
151911
152035
152020
152052
152057
152065
152050
151978
151933
151839
151879
151995
151973
151986
151990
152011
152018
151985
151972
151962
151974
152069
152049
152023
151969
151975
152025
151970
151933
151809
151848
152006
152072
152062
152072
152082
152078
152015
151963
151920
151925
151901
151945
151950
152026
151998
152011
152087
151971
151955
151867
151848
151935
152033
152027
152052
152050
151975
151913
151886
151911
151940
151995
152055
152062
152095
152045
151941
151974
151996
152014
151988
152016
152093
152098
152084
152090
152054
152004
151895
151907
151929
151942
151947
152019
152250
152258
152200
152087
151956
151967
152036
152101
152127
152160
152158
152153
152102
152081
152024
152028
152110
152138
152172
152194
152201
152173
152184
152079
152006
152023
152006
152070
152083
152042
152147
152165
152151
152142
152158
152095
152064
152068
152124
152150
152215
152267
152177
152146
152083
152118
152107
152153
152194
152157
152184
152197
152176
152165
152100
152109
152071
152077
152139
152324
152274
152194
152168
152205
152160
152087
152114
152144
152147
152199
152201
152224
152248
152240
152151
152175
152204
152241
152314
152290
152324
152272
152225
152209
152082
152089
152132
152269
152437
152374
152313
152275
152251
152243
152154
152122
152242
152322
152382
152381
152496
152469
152398
152302
152249
152300
152307
152330
152303
152229
152228
152284
152298
152243
152399
152443
152419
152366
152396
152432
152424
152395
152339
152277
152252
152355
152429
152354
152329
152364
152532
152574
152474
152369
152257
152231
152341
152467
152499
152499
152561
152607
152531
152460
152357
152403
152472
152519
152579
152503
152638
152725
152699
152725
152645
152647
152690
152756
152845
152768
152760
152725
152660
152443
152224
152097
152097
152096
152326
152401
152331
152348
152309
152284
152182
152236
152243
152254
152339
152445
152564
152644
152643
152601
152561
152521
152530
152535
152610
152598
152576
152549
152545
152564
152549
152509
152590
152735
152735
152640
152698
152749
152699
152621
152598
152586
152585
152576
152575
152623
152684
152667
152720
152703
152693
152625
152613
152538
152610
152696
152701
152693
152736
152699
152575
152508
152514
152496
152612
152750
152859
152864
152813
152662
152575
152632
152600
152728
152760
152788
152838
152787
152712
152607
152513
152562
152676
152831
152842
152853
152845
152808
152736
152766
152757
152718
152719
152752
152827
152864
152929
152914
152854
152702
152659
152676
152715
152796
152906
152966
152977
152989
152915
152843
152716
152754
152821
152907
152952
152979
152961
152915
152860
152864
152816
152952
152907
152900
152915
152984
152983
152938
152964
152882
152862
152882
152943
152900
152890
152910
153027
153024
153030
152952
152856
152881
152877
152901
152998
153043
153080
153025
152924
152949
152862
152903
152995
152975
153018
153049
153089
153037
152955
153082
153076
152980
152911
152932
152950
152985
153016
153053
153038
153106
153033
153034
152983
153031
153072
153167
153172
153128
153115
153041
152990
152912
152884
152897
153054
153177
153215
153197
153194
153159
153059
153061
153001
153039
153106
153160
153141
153110
153049
152952
153013
153109
153172
153141
153115
153161
153166
153106
153080
153046
152990
153104
153138
153115
153096
153089
153122
153133
153177
153064
153025
153024
153063
153045
153080
153129
153194
153147
153081
153028
152975
152969
152989
153029
153121
153170
153175
153147
153110
153046
153003
153013
152979
152987
153064
153113
153241
153204
153208
153198
153010
152999
153013
152986
153022
153074
153224
153269
153177
153096
153119
153181
153190
153142
153207
153217
153240
153208
153212
153136
152975
152983
153097
153185
153270
153265
153315
153253
153191
153141
153037
153095
152996
152997
153082
153164
153252
153289
153253
153164
153024
152984
153005
153076
153146
153109
153214
153257
153219
153194
153049
153008
153012
153028
153062
153020
153072
153168
153137
153172
153164
153128
153105
153051
153063
153086
153110
153125
153111
153072
153126
153079
153109
153083
153101
153116
153177
153181
153117
153115
153091
153053
152990
152998
153065
153117
153190
153112
153098
153099
153047
153046
153116
153077
153139
153204
153213
153212
153129
153080
152998
152999
153045
153048
153109
153116
153184
153223
153249
153170
153044
153084
153135
153115
153119
153136
153190
153201
153209
153151
153055
153023
153104
153123
153051
153081
153166
153222
153196
153179
153112
153144
153183
153162
153086
153104
153164
153224
153217
153167
153027
153071
153051
153038
153072
153157
153227
153135
153091
153079
153028
152997
153043
153045
153028
153040
153089
153127
153150
153128
152999
152973
153017
153070
153069
153121
153226
153233
153204
153146
153066
152984
153057
153141
153107
153087
153110
153113
153099
153074
153029
152983
153033
153066
153074
153072
153156
153176
153131
153092
153045
153001
153016
153055
153067
153010
153060
153063
153041
153085
152975
153017
153060
153013
152970
152973
153030
153076
153132
153086
153046
153017
152975
152996
152980
152978
153048
153053
153053
152992
152902
152943
152943
153045
153060
153023
153034
153078
153061
153005
152960
152935
152992
153015
153013
153042
153173
153128
153132
153120
153099
153084
153175
153180
153238
153256
153332
153370
153357
153317
153160
152987
153005
152978
152938
152858
152871
152865
152794
152716
152653
152631
152610
152568
152584
152646
152772
152872
152945
152910
152810
152857
152913
152871
152958
152949
153066
153187
153131
153029
152935
152956
152947
152984
153049
153058
153084
153124
153102
153040
152996
153065
153050
153004
152951
152985
153019
153027
153085
153096
153154
153057
152932
152930
152942
152988
153085
153086
153053
153066
153027
153003
153004
152972
152996
152963
153030
153113
153198
153114
153028
152893
152912
152913
153041
153055
153017
153108
153098
153086
153041
153046
152976
152980
153004
153053
153078
153138
153070
153023
152975
152955
152963
152916
152910
153010
153156
153090
153071
153087
152926
152883
152854
152939
153068
153123
153186
153180
153109
153109
152987
152964
152950
152889
152925
152999
153137
153131
153084
153078
153015
153027
152949
152965
152971
152944
153000
153049
153054
153084
153009
152911
152937
152902
152940
152994
153034
152999
153047
153121
153043
152870
152847
152832
152878
152982
153006
153021
153057
152992
152926
152952
152950
152828
152835
152909
152941
153014
153023
152907
152872
152886
152844
152867
152894
152894
152968
152976
152989
153009
152985
152882
152835
152797
152779
152892
153005
153099
153121
153012
152909
152859
152770
152829
152899
152907
152929
152989
152975
152956
152856
152873
152859
152868
152871
152889
152978
152926
152908
152917
152816
152818
152879
152883
152994
152951
152963
153052
152992
152949
152876
152874
152826
152839
152836
152834
152889
152915
152936
152860
152793
152812
152733
152715
152804
152834
152968
153046
152965
152940
152873
152822
152724
152700
152772
152827
152909
152914
152882
152845
152801
152764
152666
152771
152773
152820
152863
152905
152920
152863
152880
152784
152672
152658
152619
152615
152733
152916
153018
152962
152882
152767
152716
152662
152732
152799
152774
152770
152749
152761
152681
152699
152745
152778
152792
152782
152818
152854
152846
152760
152668
152660
152618
152626
152588
152621
152743
152808
152804
152723
152680
152625
152652
152724
152726
152745
152778
152779
152768
152762
152631
152609
152571
152565
152597
152667
152751
152830
152847
152766
152687
152667
152662
152672
152663
152652
152690
152698
152696
152609
152519
152607
152656
152605
152631
152664
152770
152787
152704
152681
152612
152566
152534
152643
152725
152684
152798
152824
152787
152725
152595
152593
152588
152528
152638
152616
152646
152701
152778
152791
152752
152680
152600
152622
152583
152531
152629
152729
152709
152666
152615
152591
152566
152585
152541
152518
152614
152651
152747
152762
152722
152649
152529
152493
152527
152481
152506
152549
152708
152778
152597
152503
152445
152500
152520
152559
152593
152662
152608
152679
152613
152560
152544
152507
152485
152432
152522
152588
152616
152695
152576
152429
152407
152441
152577
152522
152623
152634
152609
152622
152578
152450
152424
152444
152461
152534
152564
152632
152647
152575
152546
152494
152505
152429
152439
152494
152558
152579
152621
152558
152463
152514
152455
152428
152360
152323
152507
152654
152687
152588
152485
152534
152578
152519
152470
152447
152501
152533
152512
152512
152412
152419
152451
152487
152446
152351
152520
152541
152560
152509
152419
152432
152433
152349
152343
152358
152449
152652
152650
152571
152476
152496
152511
152463
152436
152442
152553
152604
152601
152670
152645
152668
152616
152589
152570
152621
152768
152806
152777
152752
152657
152609
152579
152591
152576
152488
152444
152520
152443
152293
152148
152071
151974
151900
152003
152033
152087
152194
152269
152256
152251
152225
152323
152357
152472
152474
152487
152557
152596
152563
152448
152384
152477
152498
152471
152390
152420
152529
152538
152526
152458
152519
152432
152310
152302
152359
152542
152652
152664
152599
152487
152466
152452
152406
152342
152324
152399
152470
152478
152433
152392
152407
152458
152397
152401
152434
152520
152530
152457
152451
152399
152313
152260
152304
152371
152397
152524
152562
152530
152489
152392
152379
152354
152322
152364
152379
152415
152490
152481
152371
152365
152421
152420
152369
152304
152332
152416
152498
152487
152452
152364
152356
152320
152240
152188
152177
152329
152497
152522
152492
152415
152332
152285
152224
152203
152163
152291
152420
152516
152489
152382
152354
152237
152168
152234
152291
152426
152420
152410
152323
152276
152176
152266
152290
152280
152251
152286
152362
152326
152333
152338
152288
152244
152177
152065
152085
152278
152474
152446
152470
152379
152293
152233
152186
152152
152128
152151
152267
152358
152290
152164
152156
152119
152108
152076
152077
152220
152322
152295
152320
152235
152128
152139
152039
152021
152020
152152
152231
152226
152300
152219
152194
152125
152106
152081
152027
152099
152167
152287
152268
152260
152229
152124
152030
152019
152008
152020
152158
152252
152207
152232
152191
152129
152084
152031
152029
152084
152066
152097
152071
152163
152216
152208
152188
152095
152024
152081
152152
152197
152126
152086
152096
152075
151974
151971
151962
152067
152159
152189
152172
152058
152059
152021
151976
151905
151857
152019
152136
152160
152108
152074
152093
151999
151930
151954
152007
152124
152072
152043
152000
151928
151943
151918
151883
151983
152033
152091
152099
152056
152063
152052
152033
151978
151953
151956
151930
151977
152036
152168
152124
152026
151975
151877
151850
151896
151844
151906
152072
152135
152096
151977
151902
151850
151868
151866
151912
151940
151950
151963
151962
151917
151945
151866
151840
151806
151806
151885
151996
152042
151969
151891
151885
151850
151863
151861
151827
151843
151838
151867
151946
151892
151954
151848
151832
151839
151789
151867
151967
151977
151924
151869
151874
151859
151748
151717
151809
151879
151929
151919
151980
151916
151852
151793
151755
151717
151736
151863
152014
152004
151956
151891
151867
151857
151894
151828
151769
151809
151912
151885
151833
151785
151849
151877
151730
151720
151709
151773
151830
151906
151945
151921
151875
151804
151731
151709
151718
151808
151879
151844
151782
151754
151807
151824
151728
151774
151781
151808
151803
151833
151816
151859
151909
151801
151694
151675
151632
151709
151781
151768
151832
151807
151774
151744
151722
151705
151607
151705
151738
151832
151821
151853
151842
151728
151630
151619
151604
151598
151668
151745
151756
151781
151817
151768
151714
151715
151657
151680
151794
151758
151723
151661
151644
151603
151592
151645
151670
151669
151731
151714
151679
151742
151752
151724
151555
151579
151521
151578
151621
151634
151665
151624
151718
151727
151611
151564
151510
151675
151738
151824
151786
151683
151659
151563
151531
151631
151634
151597
151591
151672
151681
151633
151608
151555
151525
151548
151493
151483
151610
151654
151616
151577
151574
151511
151389
151401
151420
151600
151634
151613
151578
151531
151493
151486
151587
151543
151437
151500
151585
151579
151596
151534
151530
151511
151484
151452
151438
151421
151542
151631
151639
151562
151548
151551
151500
151477
151470
151561
151650
151738
151793
151765
151746
151763
151724
151689
151635
151624
151674
151685
151644
151485
151407
151279
151143
151133
151045
151050
151117
151169
151185
151174
151239
151223
151160
151159
151176
151233
151312
151372
151448
151450
151514
151518
151426
151377
151434
151402
151479
151489
151516
151546
151567
151447
151372
151338
151366
151398
151461
151569
151621
151462
151388
151382
151377
151410
151418
151455
151471
151496
151489
151412
151431
151393
151389
151405
151369
151393
151424
151506
151517
151458
151458
151394
151328
151324
151267
151328
151447
151482
151487
151439
151546
151460
151319
151304
151332
151347
151406
151448
151505
151559
151491
151433
151354
151349
151361
151337
151417
151512
151561
151575
151512
151426
151342
151284
151263
151407
151544
151645
151604
151580
151561
151559
151496
151409
151367
151421
151420
151513
151501
151580
151627
151475
151370
151393
151405
151444
151420
151476
151531
151524
151518
151533
151440
151408
151348
151376
151381
151450
151474
151440
151509
151403
151334
151315
151363
151332
151450
151538
151507
151385
151383
151326
151339
151347
151275
151262
151346
151449
151443
151409
151382
151331
151224
151190
151163
151235
151421
151413
151363
151376
151380
151337
151285
151245
151158
151198
151256
151282
151265
151303
151369
151331
151271
151193
151144
151229
151273
151278
151238
151165
151147
151328
151327
151307
151218
151215
151279
151316
151338
151239
151202
151158
151171
151146
151072
151213
151317
151319
151321
151268
151310
151218
151138
151134
151158
151260
151225
151197
151282
151344
151257
151195
151158
151234
151227
151161
151202
151295
151286
151248
151265
151226
151260
151162
151073
151137
151162
151195
151413
151350
151277
151199
151131
151103
151039
151047
151142
151239
151223
151200
151270
151273
151074
151073
151076
151212
151215
151196
151281
151201
151179
151207
151161
151128
151167
151150
151177
151178
151215
151155
151159
151128
151114
151058
151108
151117
151170
151216
151176
151085
151076
151067
151117
151132
151067
151189
151231
151196
151181
151212
151199
151105
151073
151061
150971
150972
151142
151151
151113
151132
151159
151108
151088
151026
150937
150928
151009
151067
151155
151207
151220
151161
151026
151002
150975
150932
150944
151000
151192
151211
151111
151087
150972
150990
151053
151079
151126
151153
151121
151098
151108
151078
150982
150986
151016
151129
151158
151173
151150
151075
151087
151000
151039
151073
151014
151046
151046
151037
151078
151109
151149
151113
151044
151034
151037
151095
151127
151189
151210
151162
151158
151100
151081
151048
150984
151000
151031
151033
151078
151149
151212
151196
151145
151097
151096
151067
151051
151095
151199
151125
151147
151090
151033
151020
150999
151054
151072
151154
151190
151161
151161
151176
151117
151040
151073
151044
151042
151098
151126
151179
151228
151155
151107
151045
151010
151014
151002
151002
151009
150951
151130
151130
151092
151015
150925
150963
151044
151032
151074
151064
151088
151132
151119
151021
150981
151035
151024
151030
151027
150996
150945
150973
151024
151120
151033
151009
151013
151079
151072
151002
151077
151106
150981
150918
150927
150914
150977
150953
150966
150942
150929
150987
150984
150895
150858
150923
150997
151006
151078
151039
151029
150957
150911
150852
150789
150842
150906
150984
151062
151032
151039
151005
150927
150910
150902
150865
150808
150823
150862
150951
151121
151116
151111
150990
150930
150973
151029
151196
151208
151151
151196
151158
151126
151134
151051
150926
150814
150808
150787
150665
150700
150568
150516
150503
150484
150510
150546
150564
150591
150635
150660
150677
150713
150817
150848
150867
150921
150947
150928
150880
150933
150986
150982
150908
150806
150823
150892
150973
151009
150955
150856
150854
150859
150786
150777
150821
150882
150932
150985
151005
151017
150934
150815
150789
150727
150770
150892
151015
151025
150978
151014
150967
150916
150890
150814
150841
150868
150854
150911
150914
150884
150893
150772
150780
150815
150906
150919
150970
150999
150969
150969
150939
150842
150809
150698
150687
150776
150943
150888
150843
150948
150960
150954
150871
150763
150759
150817
150929
150965
150947
150928
150865
150891
150816
150740
150854
150904
150933
151035
150964
150852
150861
150787
150782
150761
150763
150877
150944
150974
150919
150938
150878
150815
150730
150745
150865
150954
151044
151024
150984
150985
150907
150827
150777
150671
150683
150775
150852
151016
151033
150962
150932
150897
150889
150798
150758
150745
150812
150971
151006
150997
150965
150878
150815
150740
150699
150680
150759
150865
150917
150946
150939
150852
150731
150704
150682
150714
150945
150942
150824
150806
150838
150801
150759
150727
150704
150729
150850
150918
150881
150936
150948
150898
150749
150728
150717
150662
150691
150795
150844
150915
150862
150782
150710
150639
150638
150680
150734
150791
150853
150853
150838
150761
150733
150652
150592
150643
150767
150870
150829
150833
150815
150711
150712
150583
150609
150718
150789
150838
150771
150767
150795
150736
150683
150603
150604
150657
150776
150830
150853
150856
150836
150726
150631
150558
150606
150689
150682
150718
150720
150601
150676
150800
150836
150679
150637
150599
150608
150639
150688
150808
150775
150745
150680
150544
150613
150682
150741
150800
150748
150732
150753
150714
150643
150594
150612
150605
150652
150689
150691
150678
150678
150704
150706
150642
150645
150592
150565
150614
150655
150634
150662
150690
150694
150686
150687
150692
150677
150695
150670
150706
150690
150673
150543
150446
150528
150668
150699
150708
150666
150727
150709
150643
150598
150533
150539
150487
150485
150586
150647
150752
150784
150778
150614
150498
150500
150535
150654
150630
150602
150671
150709
150701
150631
150539
150571
150606
150594
150619
150611
150614
150676
150681
150642
150531
150472
150514
150678
150729
150672
150651
150662
150667
150611
150540
150505
150552
150641
150688
150705
150754
150740
150716
150630
150558
150524
150513
150583
150630
150709
150801
150852
150765
150640
150591
150600
150604
150681
150690
150619
150669
150745
150746
150624
150595
150655
150721
150730
150772
150778
150795
150787
150733
150659
150570
150592
150613
150689
150708
150742
150750
150801
150799
150737
150599
150608
150664
150705
150785
150743
150785
150824
150823
150771
150701
150717
150713
150762
150801
150776
150805
150673
150725
150760
150799
150820
150758
150730
150767
150848
150937
150986
150948
150861
150798
150782
150828
150849
150778
150876
150913
150970
150875
150874
150800
150775
150852
150893
150903
150956
151065
151076
150948
150842
150741
150769
150865
150894
150939
150979
151008
151043
151013
150931
150833
150861
150945
150975
150974
151022
150994
151033
151025
150985
150835
150815
150874
150968
151049
151166
151158
151093
151033
150959
150903
150985
151045
151055
151089
151066
151035
151067
151072
151194
151188
151187
151217
151291
151390
151378
151381
151328
151346
151405
151205
151221
151248
151246
151207
151172
151103
151055
150964
150830
150774
150765
150761
150748
150884
151017
151097
151141
151135
151206
151148
151115
151183
151310
151366
151357
151394
151408
151402
151428
151385
151360
151393
151384
151413
151498
151552
151547
151489
151386
151358
151412
151451
151456
151503
151579
151646
151657
151561
151534
151484
151534
151507
151534
151575
151621
151762
151786
151700
151591
151559
151613
151612
151676
151676
151757
151800
151720
151681
151639
151582
151658
151714
151776
151829
151919
151927
151936
151820
151730
151645
151713
151801
151852
151863
151862
151930
151956
152023
151917
151844
151842
151909
151949
151981
151951
151997
152016
151959
152005
151921
151921
151977
152029
152058

[HeartVoice API 返回]
# HeartVoice 专业 API 返回的聚合指标（不返回原始波形分析数据）
# 与下方 [算法提取后的结构化特征] 对照可定位本地算法差异
平均心率:59
最低心率:0
最高心率:0
诊断:SNB
QRS宽度:96
P波宽度:98
PR间期:234
QT间期:332
QTc:329
房性早搏:0
室性早搏:0
信号质量:0.94
导联反接:true
是否异常:true

[算法提取后的结构化特征]
# 由 EcgFeatureExtractor.extract() + toPromptText() 在手机端重建
# 与手表端发给 DeepSeek 的提示词文本一致（DS 实际收到的数据）
# 注意: 用户 profile（年龄性别）未存入测量记录，手机端重建时为'未知'
#       助手如需年龄性别做医学判断，需用户单独提供

[用户属性]

[全局指标]
采样率:500Hz 时长:30.8s 总点数:15390
R波检测:24个 平均心率:48bpm 范围:40-54bpm
R波位置(样本索引):102,567,922,1547,1964,2512,2850,3583,4049,4195,4595,4729,5759,6768,7154,8553,9014,9419,10491,11830,12771,13908,14899,15005
RR间期序列(ms，[*]为偏离均值>20%的异常间期，多为早搏/误检):[930*] [710*] 1250 [834*] 1096 [676*] 1466 [932*] [800*] [2060*] [2018*] [772*] [922*] [810*] [2144*] [1882*] [2274*] [1982*]
RR差值序列(ms):-220,540,-416,262,-420,790,-534,-132,1260,-42,-1246,150,-112,1334,-262,392,-292
SDNN:151.8ms RMSSD:283.4ms pNN50:100.0%
QRS宽度(本地估测,ms):46±3
PR间期(本地估测,ms):140±54
QT间期(本地估测,ms):470 QTc(Bazett):420ms QTc(Fridericia):436ms
R波平均振幅:0.32mV
信号质量:0.85 良好

[节律判别特征]
RR变异系数:0.432(高度不规律)
Poincaré散点形态:彗星形(规律)
短-长RR配对数(早搏代偿):2个

[逐秒分段]
时段(s)  R波  振幅范围(mV)  峰峰值(mV)  最大斜率(mV/s)  RMS(mV)
0.0-1.0  1  -0.92~2.08  3.00  109.00  0.66
1.0-2.0  2  -1.98~0.85  2.83  136.50  0.65  ← 短RR+代偿间隙(早搏可能)
2.0-3.0  0  -1.28~1.70  2.98  112.00  0.79  ← 代偿间隙(配合前秒短RR)
3.0-4.0  2  -0.65~1.10  1.76  123.00  0.42  ← 短RR+代偿间隙(早搏可能)
4.0-5.0  0  -1.18~0.84  2.02  111.00  0.59  ← 代偿间隙(配合前秒短RR)
5.0-6.0  2  -0.93~0.99  1.92  119.00  0.52  ← 短RR+代偿间隙(早搏可能)
6.0-7.0  0  -0.65~1.02  1.67  99.50  0.44  ← 代偿间隙(配合前秒短RR)
7.0-8.0  1  -0.82~0.67  1.49  114.00  0.35
8.0-9.0  2  -0.78~0.92  1.70  142.50  0.44
9.0-10.0  2  -0.92~0.59  1.51  105.50  0.33  ← 短RR+代偿间隙(早搏可能)
10.0-11.0  0  -0.69~0.94  1.63  94.50  0.38  ← 代偿间隙(配合前秒短RR)
11.0-12.0  1  -0.54~0.57  1.10  138.00  0.27
12.0-13.0  0  -0.49~0.53  1.03  139.50  0.21  ← 本秒无R波(心率<60或代偿间隙)
13.0-14.0  1  -1.69~3.07  4.76  111.00  1.53
14.0-15.0  1  -1.09~0.72  1.81  130.50  0.48
15.0-16.0  0  -0.66~0.52  1.18  118.50  0.21  ← 本秒无R波(心率<60或代偿间隙)
16.0-17.0  0  -0.66~0.63  1.29  105.00  0.34  ← 本秒无R波(心率<60或代偿间隙)
17.0-18.0  1  -0.59~0.46  1.05  102.50  0.19
18.0-19.0  2  -0.45~0.65  1.10  104.50  0.25  ← 短RR+代偿间隙(早搏可能)
19.0-20.0  0  -0.44~0.33  0.77  129.00  0.12  ← 代偿间隙(配合前秒短RR)
20.0-21.0  1  -0.48~0.64  1.12  124.00  0.21
21.0-22.0  0  -0.52~0.40  0.92  95.50  0.11  ← 本秒无R波(心率<60或代偿间隙)
22.0-23.0  0  -0.58~0.51  1.09  126.50  0.23  ← 本秒无R波(心率<60或代偿间隙)
23.0-24.0  1  -0.83~0.58  1.42  102.00  0.27
24.0-25.0  0  -0.53~0.36  0.89  102.00  0.13  ← 本秒无R波(心率<60或代偿间隙)
25.0-26.0  1  -0.60~0.81  1.41  115.50  0.38
26.0-27.0  0  -0.48~0.32  0.80  94.00  0.12  ← 本秒无R波(心率<60或代偿间隙)
27.0-28.0  1  -0.61~0.54  1.15  101.50  0.23
28.0-29.0  0  -0.60~0.57  1.17  93.00  0.26  ← 本秒无R波(心率<60或代偿间隙)
29.0-30.0  1  -0.50~0.42  0.93  115.50  0.17
逐秒RMS:0.662,0.651,0.790,0.421,0.591,0.520,0.445,0.347,0.439,0.325,0.380,0.271,0.210,1.534,0.476,0.208,0.338,0.191,0.249,0.125,0.206,0.115,0.228,0.272,0.131,0.383,0.115,0.230,0.261,0.169

[AI 解读]
# DeepSeek 返回的原始 JSON（未清洗，可能含 markdown 代码块包裹）
本次测量未使用 AI 分析（分析方法非 ds_*）
