========== ECG 算法诊断包 ==========
测量时间: 2026-07-16 19:34:21
测量时间戳:1784201661522
采样率:500 Hz
数据点数:15330
时长:30.7 秒
分析方法:heartvoice

[原始 ECG 数据]
# 单位: mV×1000 整数（如 500 = 0.5mV，-1000 = -1.0mV）
# 采样率: 500 Hz，连续采样，无降采样无压缩
# 用途: 助手据此复现本地算法行为（基线漂移/噪声段/R波检测）
# 格式: 每行一个数值，行号=采样点索引（第1行=索引0，即 t=0.000s）
165851
165824
165801
165827
165844
165837
165887
165886
165959
165913
165870
165822
165790
165803
165786
165775
165835
165904
165899
165887
165873
165905
165824
165795
165765
165696
165700
165740
165756
165845
165943
165904
165870
165792
165772
165712
165775
165824
165845
165933
165852
165882
165861
165859
165890
165944
165934
165845
165789
165773
165762
165833
165916
165845
165866
165822
165864
165949
166026
166059
165984
165932
165924
165941
165939
165894
165943
166009
166022
166014
165926
165947
165951
165966
165956
165901
165994
165992
165954
165980
165903
165804
165844
165929
165985
165939
165949
166000
165939
165925
165915
165856
165773
165776
165840
165925
165993
165913
165916
165924
165838
165761
165726
165729
165785
165820
165905
165980
165879
165842
165802
165825
165857
165839
165768
165684
165694
165700
165728
165834
165827
165830
165789
165714
165790
165775
165718
165745
165810
165821
165784
165816
165831
165786
165733
165736
165724
165720
165756
165853
165751
165668
165715
165690
165736
165666
165697
165789
165795
165835
165845
165796
165740
165698
165643
165594
165713
165825
165843
165883
165774
165749
165750
165787
165829
165723
165708
165725
165765
165777
165692
165813
165773
165782
165802
165694
165667
165642
165681
165766
165814
165872
165789
165744
165688
165666
165743
165701
165681
165679
165671
165691
165682
165655
165651
165656
165765
165699
165674
165630
165579
165703
165738
165638
165611
165584
165630
165649
165708
165719
165615
165558
165510
165553
165538
165477
165552
165551
165576
165618
165540
165481
165547
165568
165545
165454
165511
165557
165524
165550
165501
165539
165530
165475
165448
165448
165508
165527
165457
165458
165420
165382
165394
165370
165389
165321
165334
165349
165314
165262
165225
165258
165288
165294
165242
165264
165270
165312
165354
165244
165209
165242
165178
165070
165105
165128
165224
165241
165238
165240
165206
165163
165157
165142
165174
165144
165223
165289
165234
165187
165195
165169
165126
165098
165026
164977
165042
165118
165162
165229
165202
165241
165176
165122
165135
165111
165056
165157
165081
165139
165125
165152
165182
165160
165097
165069
165117
165138
165137
165170
165112
165111
165066
165044
165027
165000
165071
165163
165246
165291
165243
165152
165189
165229
165193
165149
165183
165163
165179
165246
165192
165231
165149
165032
165046
165115
165183
165193
165216
165239
165167
165129
165091
165093
165078
164978
165001
165075
165130
165185
165120
165149
165137
165150
165147
165021
164975
164997
165078
165127
165156
165218
165223
165278
165222
165043
165042
165125
165110
165106
165041
165122
165193
165275
165379
165318
165334
165286
165297
165329
165359
165404
165396
165362
165325
165330
165332
165200
165108
165083
165015
164939
164804
164777
164734
164729
164776
164809
164866
164884
164879
164913
164953
164985
164974
164952
165077
165061
165052
165108
165107
165220
165387
165275
165202
165158
165175
165186
165245
165242
165154
165127
165194
165170
165158
165276
165319
165251
165283
165263
165176
165204
165209
165203
165199
165137
165171
165190
165231
165248
165222
165220
165226
165134
165174
165169
165159
165191
165306
165337
165342
165341
165253
165189
165153
165178
165243
165245
165216
165135
165188
165234
165216
165329
165264
165192
165247
165293
165282
165257
165322
165405
165387
165386
165358
165342
165378
165374
165391
165477
165480
165482
165437
165458
165405
165397
165465
165490
165437
165444
165458
165470
165431
165408
165395
165412
165597
165532
165478
165442
165435
165524
165409
165351
165342
165276
165318
165416
165474
165498
165533
165540
165462
165513
165473
165347
165356
165294
165379
165404
165391
165361
165320
165344
165366
165258
165276
165327
165333
165368
165310
165305
165267
165206
165229
165198
165250
165271
165307
165323
165286
165246
165294
165266
165223
165209
165238
165287
165276
165300
165283
165328
165271
165250
165215
165207
165274
165328
165417
165364
165335
165265
165221
165213
165235
165238
165279
165334
165350
165340
165321
165338
165325
165298
165327
165222
165238
165306
165285
165338
165349
165402
165321
165320
165284
165232
165321
165307
165327
165353
165311
165324
165286
165253
165355
165242
165310
165316
165351
165407
165376
165364
165364
165350
165342
165219
165244
165280
165236
165173
165118
165190
165288
165444
165357
165266
165318
165354
165339
165378
165340
165326
165283
165265
165263
165255
165328
165370
165402
165395
165428
165370
165282
165295
165258
165202
165269
165216
165260
165287
165251
165218
165193
165237
165302
165243
165202
165141
165251
165347
165337
165297
165228
165205
165207
165162
165180
165205
165178
165218
165265
165310
165284
165275
165295
165273
165269
165290
165188
165279
165195
165232
165233
165174
165165
165081
165100
165168
165238
165251
165213
165321
165311
165242
165220
165153
165147
165168
165173
165198
165194
165298
165227
165225
165221
165183
165200
165222
165234
165315
165333
165341
165373
165310
165248
165179
165183
165217
165215
165255
165236
165274
165229
165228
165265
165296
165318
165312
165274
165279
165309
165286
165304
165282
165255
165276
165356
165290
165255
165241
165211
165242
165283
165272
165252
165209
165315
165308
165312
165338
165304
165363
165312
165370
165355
165264
165283
165364
165345
165302
165334
165383
165460
165482
165427
165308
165309
165270
165374
165364
165346
165342
165243
165263
165347
165419
165434
165398
165403
165367
165297
165310
165381
165372
165415
165416
165406
165391
165350
165367
165347
165409
165396
165348
165360
165342
165377
165416
165435
165418
165327
165396
165421
165357
165345
165305
165308
165335
165375
165428
165461
165528
165608
165596
165606
165639
165629
165517
165515
165545
165534
165579
165499
165352
165327
165287
165183
165090
165058
165012
165019
165013
165073
165083
165054
164983
165032
165112
165144
165157
165162
165243
165283
165340
165355
165350
165391
165397
165387
165373
165320
165371
165367
165423
165486
165439
165421
165398
165444
165426
165418
165413
165450
165439
165415
165361
165400
165405
165397
165419
165373
165458
165457
165447
165450
165428
165470
165485
165480
165485
165455
165491
165485
165466
165467
165437
165425
165292
164783
165262
165489
165577
165585
165578
165483
165452
165542
165512
165550
165544
165533
165569
165642
165587
165544
165508
165543
165539
165557
165587
165518
165553
165609
165680
165632
165512
165560
165591
165523
165539
165602
165643
165592
165607
165632
165571
165571
165521
165542
165544
165462
165573
165534
165517
165547
165537
165549
165606
165579
165603
165607
165651
165603
165517
165479
165398
165386
165468
165541
165603
165534
165570
165578
165499
165439
165415
165435
165449
165510
165484
165418
165431
165434
165393
165304
165301
165483
165414
165388
165476
165455
165414
165446
165458
165413
165285
165325
165413
165478
165451
165449
165514
165512
165479
165436
165399
165416
165370
165426
165463
165476
165449
165473
165492
165468
165430
165470
165536
165449
165464
165421
165471
165503
165562
165626
165539
165568
165527
165554
165544
165471
165504
165552
165585
165627
165597
165545
165515
165521
165560
165591
165703
165667
165623
165627
165523
165488
165544
165548
165550
165491
165527
165598
165642
165597
165532
165617
165694
165690
165740
165629
165607
165632
165652
165697
165617
165643
165685
165667
165673
165578
165680
165760
165695
165655
165560
165563
165623
165664
165698
165660
165579
165633
165720
165727
165671
165625
165642
165617
165651
165627
165651
165670
165688
165684
165640
165709
165738
165710
165696
165666
165634
165687
165686
165590
165588
165672
165668
165701
165722
165637
165639
165632
165610
165580
165542
165588
165631
165614
165659
165597
165658
165652
165610
165588
165535
165596
165552
165649
165745
165620
165618
165611
165590
165625
165539
165567
165596
165572
165560
165528
165555
165540
165604
165631
165558
165561
165567
165645
165606
165584
165617
165578
165615
165599
165606
165552
165494
165519
165525
165530
165584
165606
165607
165619
165619
165513
165473
165555
165618
165536
165586
165629
165647
165576
165452
165494
165484
165550
165651
165700
165647
165647
165651
165656
165541
165557
165590
165585
165601
165584
165599
165634
165682
165650
165611
165638
165634
165572
165608
165624
165726
165776
165660
165680
165630
165634
165670
165710
165722
165701
165695
165683
165693
165724
165674
165549
165507
165628
165803
165789
165832
165789
165699
165681
165581
165614
165657
165692
165763
165726
165767
165865
165833
165830
165782
165801
165736
165700
165679
165621
165686
165733
165720
165744
165696
165684
165704
165739
165762
165718
165773
165791
165707
165711
165703
165672
165590
165629
165718
165663
165628
165651
165599
165645
165727
165715
165730
165730
165689
165700
165696
165710
165695
165724
165780
165786
165769
165898
165962
165902
165850
165889
165818
165746
165700
165738
165715
165636
165552
165417
165324
165269
165318
165233
165140
165190
165161
165145
165386
165421
165411
165469
165466
165430
165434
165488
165483
165520
165641
165711
165731
165640
165629
165644
165618
165582
165595
165592
165655
165655
165707
165623
165608
165650
165691
165651
165596
165623
165621
165610
165632
165668
165675
165655
165550
165562
165619
165597
165610
165633
165698
165756
165727
165598
165555
165622
165670
165691
165683
165678
165696
165730
165693
165659
165673
165723
165674
165594
165604
165651
165710
165773
165758
165690
165681
165687
165709
165646
165713
165690
165706
165700
165673
165670
165587
165598
165649
165681
165632
165700
165932
165977
165879
165840
165799
165777
165748
165692
165705
165689
165695
165673
165717
165786
165827
165831
165671
165679
165716
165703
165762
165790
165816
165783
165794
165744
165640
165613
165542
165535
165594
165687
165743
165776
165661
165608
165616
165565
165583
165595
165616
165618
165650
165608
165503
165467
165517
165583
165531
165450
165514
165610
165560
165534
165472
165510
165420
165454
165465
165432
165514
165560
165532
165468
165451
165489
165481
165468
165563
165545
165511
165545
165474
165489
165487
165543
165512
165495
165546
165482
165541
165588
165577
165480
165408
165434
165497
165499
165521
165611
165670
165642
165622
165535
165458
165520
165521
165491
165500
165526
165530
165534
165603
165542
165500
165509
165511
165567
165593
165574
165571
165582
165525
165623
165558
165603
165614
165643
165661
165571
165612
165593
165532
165567
165569
165699
165589
165587
165647
165540
165548
165564
165572
165560
165470
165431
165482
165614
165620
165472
165503
165607
165588
165546
165495
165546
165477
165474
165503
165483
165528
165540
165534
165527
165508
165609
165554
165465
165427
165393
165456
165511
165524
165522
165479
165486
165461
165456
165475
165460
165462
165458
165464
165431
165399
165394
165366
165318
165382
165362
165411
165456
165466
165417
165321
165281
165362
165399
165444
165379
165434
165324
165313
165284
165311
165421
165467
165465
165420
165267
165352
165395
165399
165395
165318
165316
165302
165285
165242
165226
165312
165289
165292
165380
165337
165381
165382
165333
165344
165256
165230
165214
165217
165299
165297
165274
165204
165196
165220
165240
165310
165351
165408
165372
165267
165211
165212
165284
165328
165172
165267
165325
165312
165323
165278
165251
165230
165247
165269
165226
165173
165202
165312
165283
165281
165235
165205
165202
165196
165163
165186
165223
165222
165317
165302
165282
165260
165298
165264
165193
165207
165183
165173
165168
165202
165347
165397
165344
165284
165208
165225
165230
165298
165386
165305
165238
165272
165203
165211
165341
165384
165346
165362
165355
165276
165237
165174
165207
165230
165227
165305
165284
165261
165333
165251
165267
165184
165215
165362
165333
165362
165310
165329
165375
165292
165305
165287
165295
165299
165226
165271
165345
165351
165343
165357
165381
165436
165481
165500
165450
165508
165516
165508
165532
165485
165555
165563
165547
165543
165389
165291
165304
165236
165091
164908
164887
164920
165001
165044
165010
164971
165003
165000
165040
165019
165005
165003
164988
165028
165190
165273
165461
165496
165418
165333
165378
165381
165347
165307
165273
165287
165254
165279
165319
165251
165247
165255
165228
165239
165281
165309
165328
165278
165318
165226
165287
165329
165341
165309
165250
165319
165370
165363
165329
165304
165314
165280
165276
165300
165211
165274
165350
165317
165311
165291
165309
165227
165221
165231
165264
165464
165483
165462
165372
165275
165235
165299
165290
165240
165237
165301
165377
165410
165364
165315
165318
165318
165289
165306
165303
165345
165418
165447
165463
165463
165459
165350
165382
165347
165299
165354
165412
165449
165473
165426
165433
165348
165334
165447
165492
165431
165475
165479
165431
165374
165402
165382
165354
165359
165386
165424
165453
165434
165328
165347
165362
165286
165288
165263
165243
165271
165259
165338
165392
165317
165280
165260
165270
165314
165241
165248
165277
165325
165400
165394
165308
165249
165273
165239
165215
165291
165300
165403
165327
165271
165260
165248
165252
165271
165220
165231
165268
165315
165413
165350
165295
165284
165262
165296
165309
165312
165341
165390
165396
165286
165244
165281
165289
165310
165386
165355
165420
165430
165305
165259
165282
165307
165391
165415
165419
165435
165435
165396
165395
165396
165385
165370
165320
165310
165284
165357
165390
165464
165472
165366
165391
165357
165343
165342
165297
165316
165281
165338
165329
165314
165345
165301
165320
165377
165364
165338
165337
165341
165365
165361
165243
165205
165265
165255
165316
165318
165254
165189
165258
165246
165292
165286
165208
165193
165189
165235
165202
165252
165252
165140
165149
165196
165183
165146
165226
165250
165250
165300
165370
165160
165140
165088
165064
165028
165135
165236
165194
165260
165254
165193
165194
165153
165128
165125
165062
165077
165062
165034
165142
165182
165181
165153
165086
165061
165072
165061
165082
165114
165132
165060
165061
165064
165015
165050
165065
165170
165265
165183
165126
165077
165089
165059
165041
164995
164985
165083
165085
165133
165121
165042
165077
165078
165116
165114
165019
165056
165062
165077
165087
165045
165092
165058
164987
165012
165050
165033
165069
165061
165162
165084
165044
165082
165094
165031
164988
164951
164966
165012
165062
165066
165016
165007
165004
164949
164928
164897
164920
164958
165013
165020
165016
164973
164955
164962
164927
164920
164882
165002
165061
165025
165041
165037
164958
164943
164939
164956
164996
164996
164990
164904
164909
164938
164914
164855
164886
164898
164788
164710
164769
164785
164927
164874
164803
164805
164747
164769
164809
164814
164792
164697
164680
164724
164758
164781
164751
164806
164777
164760
164803
164797
164792
164788
164713
164675
164693
164753
164820
164765
164831
164835
164858
164887
164878
164904
164893
164935
164910
164922
164856
164742
164671
164600
164491
164403
164305
164270
164227
164271
164335
164308
164323
164292
164226
164246
164310
164391
164424
164499
164551
164556
164617
164707
164679
164668
164654
164641
164600
164637
164653
164588
164634
164616
164603
164610
164578
164647
164685
164702
164679
164549
164545
164575
164577
164579
164578
164598
164595
164611
164630
164580
164554
164534
164578
164659
164581
164597
164559
164582
164568
164501
164519
164548
164576
164558
164558
164563
164601
164662
164620
164555
164558
164568
164590
164546
164528
164554
164593
164606
164586
164460
164468
164477
164473
164463
164408
164441
164513
164554
164569
164576
164568
164496
164472
164411
164379
164408
164543
164543
164493
164452
164433
164379
164431
164391
164365
164394
164479
164617
164567
164492
164546
164529
164434
164391
164384
164424
164392
164389
164438
164451
164416
164421
164258
164200
164185
164207
164270
164395
164460
164455
164389
164324
164248
164241
164232
164235
164266
164251
164212
164160
164198
164246
164266
164250
164244
164242
164244
164232
164246
164112
164053
164083
164021
164128
164134
164114
164141
164174
164178
164153
164207
164160
164082
164071
164053
164065
164063
164015
164101
164220
164302
164223
164078
164074
163989
164050
164080
164076
164093
164118
164168
164162
164116
164079
163918
163976
164104
164158
164113
164057
164092
164102
164069
164038
163973
163995
164019
163994
164032
164008
164062
164085
164082
164074
164046
164017
164023
163993
163989
163947
163997
163995
163906
163878
163883
163935
164015
164047
164080
163985
163925
163900
163878
163880
163906
164004
163989
163954
163994
163947
163966
163906
163913
163910
163878
163905
163784
163794
163819
163855
163844
163902
163846
163837
163836
163844
163830
163801
163852
163844
163865
163860
163793
163733
163670
163693
163715
163756
163815
163846
163845
163757
163793
163792
163712
163745
163752
163752
163763
163729
163703
163705
163729
163679
163557
163578
163631
163738
163799
163744
163749
163733
163690
163663
163592
163618
163644
163625
163699
163623
163626
163595
163645
163626
163618
163663
163611
163564
163606
163601
163556
163516
163614
163668
163686
163665
163619
163661
163651
163648
163558
163497
163484
163457
163419
163536
163623
163717
163659
163593
163584
163570
163533
163529
163515
163555
163571
163569
163532
163569
163570
163521
163480
163489
163427
163481
163453
163448
163563
163540
163620
163639
163537
163463
163393
163414
163434
163493
163573
163570
163485
163499
163449
163431
163470
163578
163619
163656
163608
163480
163456
163426
163426
163484
163429
163436
163415
163434
163484
163484
163544
163519
163457
163456
163421
163444
163467
163470
163491
163438
163427
163442
163442
163385
163387
163417
163444
163430
163444
163421
163444
163391
163438
163481
163435
163485
163529
163551
163603
163583
163624
163663
163581
163574
163573
163590
163796
163818
163752
163686
163570
163491
163408
163306
163167
163102
163062
163156
163124
163073
163221
163230
163122
163121
163126
163155
163205
163248
163282
163267
163311
163411
163450
163470
163413
163380
163438
163449
163440
163408
163457
163508
163438
163360
163292
163331
163466
163497
163527
163453
163422
163432
163475
163459
163399
163516
163524
163481
163412
163364
163381
163362
163384
163389
163400
163495
163473
163412
163432
163443
163483
163443
163381
163353
163372
163468
163443
163415
163442
163391
163433
163405
163461
163529
163506
163460
163438
163455
163565
163561
163555
163518
163500
163489
163455
163457
163438
163372
163460
163547
163636
163652
163609
163548
163455
163500
163597
163602
163511
163576
163605
163628
163602
163626
163554
163569
163606
163621
163688
163676
163642
163648
163622
163578
163573
163569
163565
163587
163591
163530
163640
163593
163561
163551
163495
163488
163487
163492
163476
163382
163428
163470
163483
163483
163470
163438
163384
163394
163375
163356
163387
163400
163449
163378
163301
163352
163380
163329
163302
163255
163293
163303
163206
163255
163226
163243
163293
163216
163261
163216
163194
163232
163202
163158
163094
163166
163230
163299
163350
163286
163251
163282
163171
163116
163078
163141
163242
163206
163202
163226
163214
163171
163136
163131
163062
163090
163095
163215
163239
163153
163194
163170
163092
163083
163048
163106
163150
163175
163289
163294
163283
163224
163163
163075
163069
163171
163206
163245
163229
163187
163158
163086
163104
163172
163181
163292
163270
163194
163204
163179
163178
163185
163171
163123
163109
163140
163175
163236
163177
163149
163149
163183
163172
163150
163122
163121
163115
163095
163107
163145
163165
163097
163099
163042
163066
163129
163213
163310
163331
163217
163201
163197
163146
163125
163106
163111
163134
163153
163112
163134
163175
163198
163121
163087
163053
163122
163091
163116
163106
163058
163125
163122
163064
162987
162924
162958
162986
163013
163067
163121
163113
163131
163115
163032
163031
163121
163090
163034
163036
163012
163082
163128
163060
163095
162989
162955
162932
162937
163050
163089
163085
163130
163084
163037
162926
162878
162937
162975
162954
162936
162939
162955
162957
163045
163035
163073
163103
163125
163068
162974
162998
163022
163060
163027
162872
162952
163043
163057
162976
162968
162984
162983
163004
162936
162857
162893
162958
163028
162992
163008
163107
163102
163072
163005
162929
162949
162965
163025
163040
162996
163053
163108
163065
162979
162918
162902
162913
162930
162998
163076
163139
163139
163095
163047
162963
162923
162961
162974
162954
162947
163013
162904
162908
162947
162964
162991
162919
162903
162960
163053
163126
163047
163039
163038
162975
162986
162996
163000
163091
163063
163014
163077
163098
163062
163057
163084
163149
163185
163187
163227
163302
163293
163245
163191
163125
163175
163237
163224
163087
163121
163093
162964
162816
162722
162602
162712
162794
162815
162769
162715
162800
162843
162889
162871
162827
162885
163034
163008
163072
163127
163103
163104
163098
163055
163001
163034
163090
163033
163083
163144
163215
163223
163145
163146
163149
163140
163156
163096
163159
163056
163037
163092
163050
163060
163028
163023
163145
163158
163134
163113
163157
163178
163173
163051
163037
163047
163058
163049
163058
163021
163082
163075
163071
163025
162987
162977
162989
163107
163115
163094
163028
163047
163038
163010
162991
163048
163080
163066
163064
163080
163119
163158
163125
163062
163029
163023
163044
163090
163071
163136
163191
163171
163172
163188
163147
163106
163137
163118
163170
163196
163241
163223
163225
163190
163138
163099
163012
163104
163198
163198
163224
163229
163171
163165
163214
163258
163235
163237
163205
163172
163146
163169
163189
163169
163219
163273
163200
163238
163217
163193
163322
163308
163256
163239
163113
163120
163080
163056
163203
163290
163272
163257
163273
163236
163080
163134
163166
163114
163126
163193
163268
163254
163268
163165
163164
163170
163111
163108
163193
163210
163250
163283
163288
163266
163185
163167
163235
163204
163205
163211
163299
163335
163338
163206
163131
163190
163259
163268
163237
163225
163273
163329
163366
163379
163354
163320
163328
163381
163382
163387
163404
163356
163285
163265
163299
163315
163314
163434
163411
163352
163330
163346
163376
163392
163376
163418
163359
163451
163441
163362
163436
163407
163438
163507
163502
163523
163443
163354
163440
163387
163368
163488
163446
163449
163496
163577
163572
163459
163451
163402
163446
163526
163541
163478
163384
163479
163555
163575
163568
163533
163564
163521
163466
163487
163456
163459
163419
163458
163436
163465
163622
163645
163618
163604
163376
163363
163434
163424
163516
163596
163619
163568
163564
163581
163606
163576
163495
163542
163586
163529
163500
163452
163471
163535
163626
163680
163711
163769
163796
163595
163606
163632
163628
163609
163542
163570
163582
163684
163747
163696
163717
163738
163699
163621
163663
163726
163704
163689
163710
163645
163716
163758
163761
163706
163655
163706
163773
163736
163798
163869
163738
163725
163677
163697
163728
163700
163653
163625
163659
163634
163714
163826
163810
163779
163734
163711
163693
163641
163635
163658
163806
163776
163789
163786
163703
163689
163655
163673
163774
163796
163834
163867
163892
163904
163802
163889
164015
163963
163882
163897
163986
163984
163902
163816
163707
163595
163553
163435
163363
163340
163424
163485
163564
163542
163440
163454
163481
163495
163590
163654
163702
163719
163761
163766
163621
163699
163770
163801
163784
163730
163792
163876
163903
163949
163896
163851
163836
163701
163671
163735
163916
164011
164076
163977
163867
163849
163853
163845
163825
163781
163847
163904
163904
163908
163788
163766
163792
163788
163838
163816
163826
163850
163915
163903
163847
163864
163777
163800
163812
163753
163780
163803
163854
163960
163913
163859
163855
163931
163871
163790
163853
163915
163892
163885
163824
163834
163810
163810
163846
163904
163920
163923
163904
163837
163844
163815
163828
163824
163813
163894
163934
163887
163850
163829
163807
163793
163832
163857
163852
163891
163945
163907
163861
163864
163794
163850
163841
163779
163758
163778
163827
163807
163778
163777
163727
163751
163756
163651
163617
163629
163687
163784
163795
163807
163694
163645
163605
163667
163709
163678
163762
163722
163686
163677
163615
163686
163661
163573
163614
163617
163690
163731
163765
163722
163653
163663
163702
163592
163564
163525
163577
163623
163742
163805
163727
163683
163676
163648
163654
163605
163667
163750
163756
163731
163690
163681
163720
163666
163690
163732
163760
163696
163710
163730
163611
163596
163621
163676
163677
163651
163712
163812
163822
163732
163639
163663
163712
163635
163602
163609
163625
163659
163595
163612
163590
163587
163590
163597
163627
163606
163673
163722
163709
163627
163521
163494
163498
163607
163662
163663
163636
163607
163635
163631
163500
163482
163424
163429
163474
163525
163595
163661
163646
163595
163539
163573
163480
163413
163377
163310
163376
163479
163498
163580
163601
163548
163400
163325
163313
163303
163426
163464
163536
163518
163430
163322
163314
163401
163480
163510
163528
163426
163393
163346
163340
163367
163318
163380
163354
163413
163490
163526
163443
163352
163333
163330
163288
163275
163231
163160
163253
163305
163349
163330
163245
163220
163210
163170
163155
163145
163261
163313
163315
163323
163275
163275
163216
163142
163094
163248
163362
163329
163260
163269
163259
163252
163182
163181
163199
163169
163178
163197
163160
163161
163039
163088
163178
163171
163076
162964
162958
162906
163022
163109
163067
163084
163122
163117
163149
163146
163152
163147
163135
163062
163009
163021
163131
163197
163117
163052
163088
163146
163166
163108
163028
163024
163019
163043
163143
163161
163193
163235
163269
163281
163180
163191
163191
163168
163172
163070
163071
163010
162984
162955
162830
162767
162704
162640
162583
162562
162624
162643
162639
162716
162781
162760
162687
162675
162749
162746
162884
162950
162931
162944
162873
162824
162810
162762
162816
162802
162833
162824
162780
162799
162767
162765
162709
162761
162810
162779
162774
162742
162717
162748
162651
162648
162648
162609
162537
162513
162553
162518
162561
162592
162551
162540
162508
162486
162431
162426
162431
162365
162379
162373
162300
162365
162350
162370
162280
162247
162269
162252
162218
162198
162180
162271
162356
162289
162235
162144
162151
162134
162116
162093
162028
162044
162123
161977
161953
162017
162070
162051
162023
162018
162049
162042
162015
162033
162016
161958
162000
162008
161976
161987
161921
161994
162022
161974
162023
161926
161925
161899
161945
162003
162001
162014
161949
161882
161881
161804
161813
161857
161888
161896
161891
161878
161874
161852
161792
161800
161725
161752
161842
161825
161751
161736
161727
161738
161661
161628
161674
161712
161744
161727
161669
161631
161599
161542
161424
161483
161608
161724
161748
161687
161580
161568
161526
161398
161433
161502
161550
161561
161550
161528
161524
161491
161433
161414
161432
161415
161434
161520
161507
161418
161320
161377
161392
161419
161480
161492
161487
161470
161455
161414
161320
161368
161437
161443
161421
161401
161383
161354
161388
161400
161339
161358
161343
161305
161349
161295
161314
161328
161305
161316
161305
161376
161380
161303
161313
161280
161274
161284
161277
161245
161131
161113
161256
161299
161293
161240
161259
161257
161303
161236
161208
161216
161219
161173
161089
161078
161163
161167
161196
161170
161207
161261
161206
161144
161068
160988
160999
161005
161034
161005
160966
161028
161054
161100
161051
161009
161056
161029
161014
161039
160946
160921
160910
160859
160894
160923
160948
160993
161007
161006
160933
160906
160940
160881
160783
160680
160796
160934
161011
161090
160945
160918
160953
160879
160870
160798
160828
160832
160873
160850
160775
160779
160788
160781
160785
160799
160849
160875
160872
160788
160727
160761
160776
160745
160650
160625
160647
160678
160770
160863
160846
160844
160796
160795
160762
160751
160732
160721
160711
160707
160666
160687
160748
160738
160703
160709
160776
160736
160732
160757
160678
160666
160655
160644
160588
160503
160537
160558
160534
160605
160577
160583
160632
160513
160515
160514
160594
160602
160634
160684
160675
160628
160572
160524
160508
160487
160580
160596
160603
160591
160559
160513
160548
160558
160566
160545
160584
160585
160661
160740
160712
160758
160788
160745
160704
160629
160702
160738
160676
160655
160564
160451
160279
160250
160181
160065
160114
160061
160025
160162
160090
160105
160195
160194
160223
160181
160259
160319
160384
160383
160380
160423
160436
160376
160380
160318
160368
160410
160424
160432
160388
160400
160388
160425
160398
160381
160428
160426
160461
160471
160448
160417
160338
160343
160312
160250
160295
160369
160347
160399
160383
160408
160355
160277
160361
160369
160388
160392
160374
160368
160312
160354
160417
160368
160314
160222
160295
160402
160482
160463
160447
160389
160351
160362
160335
160301
160308
160331
160396
160409
160326
160340
160324
160292
160237
160259
160307
160355
160366
160370
160360
160394
160341
160287
160293
160281
160302
160322
160394
160389
160350
160426
160364
160212
160161
160130
160340
160408
160491
160518
160482
160489
160438
160394
160291
160225
160227
160313
160390
160419
160367
160363
160394
160363
160372
160325
160365
160337
160365
160369
160332
160297
160285
160235
160234
160216
160277
160329
160310
160347
160373
160400
160367
160277
160280
160235
160268
160301
160314
160257
160238
160277
160282
160279
160222
160252
160363
160383
160332
160315
160227
160180
160310
160373
160304
160239
160250
160281
160340
160306
160198
160220
160263
160301
160301
160292
160310
160333
160316
160334
160318
160345
160340
160298
160306
160284
160389
160356
160355
160378
160331
160342
160325
160287
160247
160156
160282
160358
160479
160514
160421
160433
160399
160262
160176
160202
160374
160475
160504
160519
160470
160431
160434
160371
160353
160342
160337
160330
160360
160371
160407
160388
160359
160299
160339
160408
160450
160366
160324
160356
160357
160372
160372
160322
160339
160353
160317
160294
160326
160335
160355
160346
160368
160359
160250
160282
160301
160294
160315
160382
160333
160326
160403
160376
160335
160224
160207
160250
160246
160252
160260
160337
160294
160307
160269
160186
160194
160187
160120
160139
160207
160286
160291
160251
160112
160082
160141
160251
160419
160367
160268
160264
160250
160234
160184
160128
160157
160234
160311
160304
160243
160203
160166
160118
160141
160184
160248
160254
160223
160264
160246
160181
160148
160246
160232
160189
160203
160173
160219
160253
160295
160291
160240
160233
160225
160147
160151
160190
160233
160216
160148
160208
160238
160247
160179
160169
160254
160246
160209
160211
160162
160250
160311
160328
160262
160192
160194
160217
160211
160264
160236
160261
160238
160264
160207
160137
160152
160103
160186
160272
160277
160412
160375
160211
160191
160172
160208
160254
160295
160341
160277
160263
160240
160264
160236
160173
160289
160408
160374
160356
160309
160341
160332
160390
160408
160327
160287
160267
160266
160286
160307
160314
160339
160346
160274
160156
160236
160295
160251
160273
160299
160278
160233
160193
160152
160218
160368
160318
160369
160415
160302
160305
160295
160252
160204
160177
160189
160242
160202
160218
160298
160345
160308
160269
160270
160232
160274
160315
160319
160331
160293
160347
160371
160451
160451
160391
160419
160408
160408
160492
160399
160295
160238
160173
160112
160025
159928
159849
159877
159998
159924
159896
159884
159856
159880
159863
159907
159896
159912
159946
159928
160022
160129
160176
160184
160158
160160
160165
160166
160177
160125
160130
160149
160119
160098
160034
160095
160139
160176
160181
160114
160112
160106
160162
160285
160267
160185
160210
160223
160237
160199
160156
160159
160119
160098
160105
160227
160269
160257
160227
160169
160206
160193
160183
160207
160191
160207
160165
160207
160220
160188
160185
160189
160174
160137
160094
160112
160165
160221
160285
160247
160255
160262
160279
160281
160223
160221
160269
160350
160360
160314
160276
160245
160204
160308
160341
160380
160410
160384
160337
160340
160377
160354
160341
160337
160290
160333
160300
160280
160277
160273
160324
160363
160463
160425
160271
160231
160270
160273
160359
160366
160375
160426
160416
160390
160345
160370
160381
160354
160367
160317
160256
160283
160350
160369
160347
160326
160271
160233
160231
160264
160310
160367
160411
160362
160275
160259
160212
160221
160219
160274
160321
160335
160307
160313
160242
160219
160134
160133
160207
160307
160365
160391
160385
160265
160195
160234
160251
160258
160205
160198
160288
160215
160163
160195
160194
160365
160483
160393
160412
160358
160352
160313
160332
160286
160208
160205
160260
160353
160447
160421
160449
160380
160355
160390
160407
160362
160413
160391
160368
160337
160443
160419
160417
160482
160403
160392
160408
160430
160429
160414
160436
160461
160469
160429
160382
160381
160411
160399
160403
160397
160416
160412
160445
160441
160396
160372
160364
160363
160360
160406
160545
160530
160446
160426
160406
160388
160314
160335
160351
160420
160495
160449
160415
160449
160408
160449
160541
160436
160409
160383
160425
160454
160406
160371
160323
160421
160494
160484
160474
160449
160461
160397
160351
160415
160351
160371
160412
160483
160517
160463
160468
160440
160413
160360
160297
160304
160305
160312
160378
160369
160340
160358
160388
160445
160375
160400
160382
160328
160327
160331
160411
160451
160446
160385
160271
160266
160351
160440
160400
160372
160457
160520
160567
160531
160446
160461
160442
160457
160461
160455
160491
160471
160471
160410
160365
160478
160498
160449
160444
160450
160492
160522
160471
160446
160398
160462
160492
160578
160564
160483
160539
160533
160502
160567
160489
160510
160533
160614
160654
160592
160631
160591
160571
160563
160562
160511
160517
160534
160565
160545
160480
160510
160542
160631
160568
160559
160594
160585
160566
160535
160564
160627
160654
160610
160497
160513
160611
160681
160644
160625
160651
160658
160633
160599
160556
160631
160657
160646
160625
160617
160644
160682
160695
160789
160757
160739
160794
160788
160794
160750
160734
160770
160731
160652
160570
160484
160444
160360
160325
160288
160328
160291
160210
160217
160222
160318
160385
160409
160461
160485
160519
160534
160587
160591
160512
160557
160555
160589
160615
160663
160709
160718
160769
160691
160554
160537
160519
160581
160614
160555
160607
160628
160585
160624
160635
160611
160693
160683
160653
160611
160646
160659
160651
160665
160634
160653
160646
160656
160581
160507
160619
160678
160736
160765
160657
160624
160601
160620
160612
160594
160621
160547
160598
160656
160626
160710
160680
160660
160630
160632
160680
160685
160639
160627
160536
160590
160748
160788
160715
160697
160699
160762
160758
160740
160762
160721
160731
160794
160832
160803
160845
160785
160748
160798
160798
160809
160825
160843
160803
160805
160959
160950
160895
160860
160824
160900
160921
160900
160933
160861
160888
160910
160905
160942
160873
160828
160829
160787
160826
160820
160886
160992
160940
160914
160875
160899
160980
160923
160891
160854
160866
160915
160928
160898
160865
160883
160897
160969
160955
160920
160926
160922
160964
160953
160885
160909
160894
160898
160855
160831
160893
160923
160890
160816
160777
160872
160997
160984
160963
160940
160951
160962
161002
160968
160891
160866
160918
160944
161038
161038
161064
161056
161016
160962
160864
160903
160939
161018
161006
160944
161010
161043
160963
160940
160932
160871
160891
161038
161070
160989
161048
161084
161038
161015
160915
160898
160932
161000
161059
161058
161168
161153
161012
160986
160998
161064
161083
161008
161009
161045
161078
161089
161057
161063
161024
161020
160980
161004
161037
161051
161164
161222
161165
161110
161016
161031
160983
160966
161043
161042
161129
161189
161137
161148
161130
161058
161094
161202
161211
161206
161264
161249
161217
161204
161161
161150
161116
161144
161161
161163
161236
161305
161304
161273
161211
161176
161144
161200
161276
161204
161212
161222
161260
161206
161142
161154
161223
161326
161423
161363
161357
161321
161304
161241
161250
161290
161258
161246
161288
161283
161326
161423
161470
161376
161290
161320
161330
161318
161390
161382
161391
161418
161419
161355
161249
161316
161412
161352
161361
161371
161474
161513
161544
161468
161366
161363
161353
161394
161387
161363
161504
161566
161516
161464
161460
161520
161522
161515
161563
161569
161577
161542
161542
161566
161497
161508
161513
161477
161489
161517
161642
161703
161626
161568
161513
161513
161583
161520
161488
161559
161661
161664
161636
161554
161495
161531
161573
161634
161652
161657
161727
161805
161757
161659
161627
161615
161614
161581
161541
161463
161471
161598
161656
161678
161607
161575
161608
161616
161659
161588
161584
161592
161594
161618
161616
161607
161550
161547
161554
161557
161661
161665
161674
161622
161616
161624
161648
161644
161586
161617
161612
161713
161786
161811
161746
161768
161840
161885
161956
161900
161966
162019
162025
161978
161855
161877
161792
161732
161727
161713
161704
161661
161478
161379
161340
161443
161406
161448
161488
161459
161495
161521
161503
161530
161538
161603
161673
161731
161761
161772
161864
161842
161853
161875
161815
161793
161722
161756
161772
161761
161829
161886
161880
161893
161830
161757
161707
161730
161782
161773
161901
161983
162020
161985
161893
161875
161839
161822
161826
161808
161818
161911
161981
161953
161848
161795
161885
161961
161974
161943
161945
161955
161988
161991
161902
161916
161891
161942
161931
161845
161910
161965
161963
161931
161859
161767
161916
161940
162005
162046
162051
161995
162014
162037
162025
161986
161903
161845
161869
161983
162118
162161
162060
162021
161972
162023
162069
162051
162050
162032
162045
162083
162140
162190
162103
162084
162082
162036
161995
161991
162051
162048
162047
161973
161948
161986
161958
161989
162047
162063
162109
162083
162009
162021
162018
162003
161984
161910
161885
161900
162042
162071
162133
162112
162044
162023
161993
161955
161945
161940
161973
161936
161912
161895
161898
161943
161965
161983
161954
161874
161899
161885
161850
161841
161860
161917
161956
161930
161830
161820
161863
161938
161968
161978
161963
161917
161875
161866
161878
161911
161992
161985
162008
162031
161964
161970
161941
161862
161875
161935
161982
162064
162027
161961
161882
161885
161945
161934
161886
161872
161873
161932
161987
162010
161949
162004
162043
162081
162118
161997
162035
162045
162002
162041
161986
162051
161996
161936
161949
161968
162003
162093
162187
162111
161999
162014
162054
162027
162019
161990
162062
162121
162079
162078
162079
162060
162065
162046
162084
162032
162107
162146
162095
162092
162030
162053
162114
162112
162090
162037
162045
162040
162050
162086
162104
162193
162126
162052
162024
162032
162083
162101
162127
162118
162046
162053
162069
162126
162098
162060
162104
162126
162103
162132
162073
162053
161998
161981
161988
161992
162049
162074
162182
162190
162103
162068
162069
161981
161967
161941
162006
162032
161983
161993
161986
162046
162063
162091
162099
162048
162078
162074
162103
162121
162058
162014
162007
162012
162070
162032
162149
162233
162205
162127
162062
162052
162020
162042
162051
162047
162058
162080
162054
162037
162078
162144
162121
162143
162132
162072
162105
162134
162121
162073
162025
162021
162050
162066
162078
162058
162101
162080
162136
162234
162258
162280
162272
162224
162233
162231
162186
162220
162191
162148
162130
162166
162185
162172
162255
162243
162196
162210
162263
162242
162203
162229
162226
162195
162161
162080
162105
162106
162160
162284
162274
162216
162241
162236
162208
162172
162156
162178
162245
162267
162227
162187
162149
162189
162233
162200
162253
162246
162225
162185
162174
162177
162196
162224
162245
162240
162281
162265
162245
162257
162229
162203
162264
162258
162345
162264
162245
162377
162373
162389
162337
162438
162497
162574
162551
162575
162584
162520
162440
162401
162292
162286
162277
162232
162112
161998
162009
162023
162014
161964
161925
161985
161961
161950
162077
162099
162146
162159
162163
162229
162219
162277
162316
162374
162396
162295
162306
162350
162345
162284
162277
162386
162431
162341
162389
162388
162434
162445
162410
162395
162323
162333
162309
162253
162250
162240
162292
162363
162419
162421
162379
162398
162373
162366
162386
162394
162419
162380
162358
162412
162395
162367
162355
162318
162320
162368
162455
162506
162422
162384
162351
162379
162348
162306
162360
162344
162389
162429
162370
162377
162328
162354
162428
162433
162384
162361
162342
162428
162505
162504
162483
162512
162468
162393
162381
162371
162431
162407
162446
162488
162491
162504
162580
162564
162517
162440
162490
162511
162555
162554
162449
162401
162436
162445
162483
162505
162487
162445
162507
162585
162547
162565
162578
162526
162545
162583
162572
162499
162417
162437
162451
162437
162554
162554
162489
162410
162455
162528
162530
162477
162426
162432
162391
162342
162331
162285
162281
162298
162371
162352
162310
162338
162353
162331
162336
162328
162331
162334
162336
162332
162430
162383
162357
162302
162238
162232
162331
162319
162341
162357
162360
162350
162358
162400
162342
162255
162302
162315
162293
162334
162300
162285
162302
162312
162339
162288
162403
162456
162506
162483
162388
162377
162400
162413
162366
162316
162327
162323
162301
162315
162323
162496
162557
162502
162422
162376
162421
162416
162409
162426
162391
162375
162331
162308
162287
162237
162263
162352
162421
162412
162412
162481
162503
162527
162448
162381
162373
162394
162436
162506
162453
162365
162355
162367
162318
162286
162373
162402
162414
162442
162357
162320
162328
162319
162302
162193
162288
162277
162377
162459
162412
162540
162472
162380
162323
162274
162312
162360
162349
162348
162278
162324
162334
162280
162304
162292
162339
162316
162351
162348
162281
162281
162281
162256
162228
162186
162169
162232
162233
162301
162247
162301
162296
162203
162122
162119
162143
162124
162172
162296
162278
162290
162266
162199
162245
162189
162238
162230
162238
162251
162203
162189
162174
162144
162216
162149
162222
162233
162248
162249
162195
162212
162200
162158
162178
162140
162220
162194
162127
162120
162011
162085
162263
162327
162307
162212
162200
162243
162224
162231
162209
162276
162249
162183
162129
162048
162104
162191
162202
162249
162275
162289
162238
162148
162109
162119
162185
162242
162307
162234
162186
162222
162251
162195
162150
162109
162221
162284
162231
162240
162188
162196
162244
162284
162246
162139
162188
162229
162210
162295
162262
162229
162218
162210
162163
162114
162131
162184
162290
162263
162234
162222
162155
162122
162195
162143
162190
162188
162245
162224
162136
162176
162227
162320
162408
162379
162330
162293
162358
162358
162377
162502
162609
162586
162535
162422
162436
162439
162381
162285
162241
162217
162035
161986
161948
161875
161900
161891
161922
161997
161990
161995
162025
162023
162016
162030
162101
162167
162149
162184
162177
162243
162326
162227
162235
162264
162345
162370
162330
162320
162233
162276
162305
162360
162323
162217
162270
162336
162382
162389
162352
162351
162284
162300
162266
162204
162274
162331
162404
162406
162336
162264
162223
162320
162339
162400
162390
162332
162356
162358
162334
162392
162389
162324
162284
162267
162317
162342
162315
162325
162342
162317
162311
162345
162362
162316
162317
162351
162337
162373
162373
162402
162377
162297
162294
162248
162283
162319
162351
162397
162387
162373
162366
162388
162364
162324
162316
162319
162278
162242
162290
162386
162402
162417
162372
162391
162450
162432
162434
162450
162368
162387
162384
162375
162429
162340
162332
162366
162400
162422
162399
162385
162423
162453
162338
162367
162382
162350
162374
162414
162382
162344
162312
162338
162317
162328
162380
162358
162390
162444
162400
162373
162325
162262
162198
162157
162229
162373
162517
162528
162510
162430
162352
162363
162370
162383
162407
162378
162447
162492
162511
162489
162489
162420
162426
162418
162385
162442
162446
162461
162408
162394
162388
162357
162332
162363
162476
162548
162600
162573
162538
162515
162422
162387
162354
162447
162543
162586
162621
162675
162603
162628
162627
162621
162589
162547
162589
162598
162507
162498
162565
162636
162573
162579
162513
162445
162486
162546
162591
162564
162451
162479
162489
162536
162568
162514
162500
162552
162508
162498
162443
162506
162575
162583
162552
162509
162510
162523
162555
162579
162475
162506
162486
162405
162383
162330
162299
162289
162334
162393
162415
162374
162395
162396
162426
162388
162414
162431
162460
162435
162307
162304
162328
162325
162288
162300
162383
162406
162412
162395
162367
162359
162289
162337
162355
162360
162307
162310
162303
162369
162377
162377
162333
162284
162299
162238
162264
162300
162286
162259
162300
162328
162311
162283
162275
162246
162272
162355
162418
162350
162305
162320
162328
162363
162328
162243
162275
162345
162400
162338
162323
162374
162333
162269
162318
162332
162364
162392
162397
162363
162296
162373
162350
162332
162396
162448
162450
162517
162494
162513
162486
162526
162531
162531
162482
162463
162539
162517
162545
162597
162542
162504
162477
162521
162564
162482
162543
162627
162610
162624
162631
162662
162597
162612
162604
162539
162483
162506
162547
162637
162725
162729
162669
162615
162597
162567
162578
162603
162609
162593
162579
162562
162525
162501
162491
162456
162526
162634
162712
162732
162659
162634
162627
162550
162516
162499
162490
162634
162624
162635
162684
162732
162803
162834
162817
162700
162708
162689
162623
162619
162583
162494
162428
162387
162304
162219
162099
162057
162098
162104
162124
162201
162162
162110
162176
162098
162106
162230
162252
162329
162397
162459
162502
162428
162388
162327
162365
162466
162551
162516
162443
162499
162459
162443
162408
162335
162392
162473
162498
162493
162491
162459
162404
162369
162459
162441
162426
162440
162422
162444
162445
162414
162472
162556
162522
162520
162539
162465
162493
162479
162489
162538
162502
162501
162475
162429
162440
162488
162516
162531
162498
162455
162430
162406
162503
162485
162474
162497
162572
162641
162659
162614
162563
162531
162563
162592
162609
162592
162579
162575
162546
162564
162629
162637
162732
162686
162627
162610
162660
162721
162697
162663
162633
162640
162666
162614
162692
162751
162741
162819
162824
162806
162722
162672
162652
162658
162709
162752
162795
162753
162706
162760
162779
162777
162756
162708
162713
162668
162660
162632
162636
162701
162699
162646
162597
162594
162627
162632
162597
162587
162585
162666
162640
162608
162518
162429
162522
162533
162563
162594
162552
162551
162549
162506
162472
162462
162531
162575
162522
162551
162551
162521
162588
162569
162588
162476
162462
162521
162527
162466
162416
162431
162469
162471
162440
162396
162440
162474
162535
162514
162491
162506
162515
162510
162517
162462
162464
162462
162474
162509
162447
162494
162526
162540
162507
162457
162469
162400
162373
162449
162506
162650
162663
162506
162482
162393
162427
162426
162464
162445
162386
162441
162499
162563
162502
162411
162435
162459
162490
162541
162588
162595
162515
162450
162452
162451
162434
162435
162401
162440
162445
162453
162464
162467
162494
162410
162461
162478
162426
162420
162417
162450
162428
162431
162391
162354
162360
162355
162366
162404
162430
162467
162490
162524
162527
162496
162503
162466
162416
162416
162382
162459
162421
162456
162459
162361
162325
162349
162433
162455
162422
162407
162396
162403
162381
162322
162334
162332
162322
162405
162400
162432
162383
162341
162287
162189
162247
162306
162375
162373
162387
162376
162337
162308
162267
162266
162290
162221
162285
162395
162423
162449
162432
162415
162444
162401
162359
162310
162329
162365
162346
162396
162418
162370
162396
162309
162274
162301
162322
162357
162412
162407
162351
162361
162359
162301
162294
162305
162273
162222
162278
162374
162401
162417
162416
162363
162371
162425
162379
162375
162312
162307
162315
162419
162534
162511
162468
162443
162438
162467
162441
162416
162402
162401
162381
162344
162367
162437
162428
162372
162354
162419
162477
162441
162431
162375
162412
162436
162404
162404
162456
162454
162419
162420
162464
162374
162403
162462
162437
162394
162334
162408
162457
162445
162408
162357
162392
162382
162413
162481
162459
162580
162594
162612
162609
162554
162558
162494
162457
162436
162465
162657
162835
162800
162792
162719
162663
162679
162625
162569
162466
162423
162408
162345
162250
162167
162132
162144
162167
162143
162027
162058
162066
162156
162213
162186
162329
162404
162418
162400
162368
162436
162468
162425
162389
162333
162347
162424
162452
162507
162463
162468
162466
162493
162458
162389
162419
162485
162434
162383
162386
162448
162399
162419
162402
162304
162287
162333
162368
162426
162383
162437
162469
162496
162447
162408
162512
162552
162522
162468
162361
162414
162409
162385
162370
162367
162432
162490
162506
162558
162503
162416
162428
162462
162494
162517
162507
162503
162475
162439
162395
162421
162481
162468
162373
162406
162519
162547
162579
162636
162538
162524
162488
162457
162488
162488
162582
162623
162636
162644
162616
162611
162631
162654
162602
162560
162581
162506
162533
162536
162565
162650
162691
162699
162651
162560
162566
162581
162609
162648
162614
162624
162668
162701
162654
162602
162564
162552
162562
162542
162521
162517
162479
162543
162536
162478
162520
162477
162427
162461
162494
162531
162526
162512
162509
162488
162475
162398
162409
162447
162384
162328
162346
162406
162402
162372
162432
162459
162455
162448
162357
162379
162400
162381
162378
162302
162285
162300
162316
162344
162290
162339
162365
162354
162341
162326
162275
162264
162269
162255
162252
162275
162283
162330
162279
162267
162265
162252
162227
162262
162271
162324
162357
162312
162269
162270
162262
162209
162260
162284
162305
162301
162369
162309
162235
162174
162162
162197
162283
162384
162349
162354
162377
162348
162349
162344
162327
162288
162357
162395
162288
162279
162361
162427
162373
162338
162324
162346
162346
162307
162234
162326
162358
162351
162334
162285
162242
162192
162191
162266
162361
162483
162448
162386
162362
162334
162320
162282
162280
162335
162282
162274
162297
162324
162278
162305
162290
162243
162243
162274
162251
162254
162254
162264
162216
162065
162193
162220
162186
162206
162185
162216
162216
162252
162298
162271
162256
162208
162194
162201
162229
162298
162273
162265
162301
162239
162185
162157
162186
162240
162229
162281
162261
162247
162211
162175
162262
162290
162205
162184
162206
162288
162333
162229
162144
162150
162182
162139
162150
162196
162228
162273
162345
162305
162256
162211
162197
162192
162221
162226
162180
162216
162263
162291
162305
162345
162336
162209
162150
162106
162135
162256
162388
162338
162373
162258
162194
162177
162231
162307
162294
162279
162299
162237
162201
162222
162276
162296
162246
162194
162159
162200
162194
162177
162218
162197
162230
162181
162124
162123
162144
162213
162258
162258
162167
162172
162169
162167
162148
162124
162049
162147
162202
162237
162292
162151
162128
162091
161981
161988
162015
162118
162120
162101
162095
162162
162188
162195
162194
162168
162191
162305
162393
162358
162411
162359
162289
162251
162208
162164
162050
162063
162024
161876
161794
161645
161691
161760
161731
161707
161659
161704
161702
161736
161790
161809
161885
161919
161941
161901
161921
162019
162100
162114
162090
162023
162055
162010
161995
162046
161957
162021
162071
162095
162082
162058
162032
161989
161932
161926
161942
161989
162076
162177
162190
162138
162072
162076
162063
162006
161940
161975
161982
162046
162027
161998
161942
162034
161995
162004
161978
161942
161987
162016
162031
162003
162007
161945
161927
161930
161922
161913
161868
161860
161841
161864
161945
161961
161963
161988
161961
161964
162044
162052
161995
161911
161866
161870
161897
161861
161945
162029
161990
162045
162071
161969
161969
161979
162007
162014
161972
161980
161993
162019
162064
162014
162045
162013
161981
162008
161910
161944
161970
162006
162050
162044
162036
161997
162017
162018
161997
162005
162001
161997
162038
161958
162000
162028
162008
162040
162020
161990
162038
162030
162017
161922
161962
162005
161965
161981
161959
161988
162000
161984
162000
161901
161903
161859
161839
161845
161859
161913
161968
162040
162022
161945
161936
161900
161886
161903
161805
161850
161873
161897
161937
161924
161959
161944
161921
161893
161869
161878
161956
161946
161939
161898
161924
161975
161910
161879
161889
161916
161952
161976
161939
161893
161918
161935
161918
161831
161824
161910
161971
162029
161977
161865
161851
161902
161978
161972
161925
161983
161935
161932
161932
161821
161862
161829
161858
161948
161975
162006
162041
161945
161955
161918
161890
161875
161872
161838
161826
161922
162044
162111
162090
161962
161884
161904
161912
161908
161894
161907
161934
161876
161889
161893
161887
161896
161886
161908
161867
161925
161998
162000
162014
161956
161967
161948
161908
161889
161872
161897
161965
161858
161792
161777
161850
161941
161989
161921
161864
161925
161940
161905
161882
161858
161862
161820
161754
161822
161807
161827
161861
161865
161880
161824
161802
161830
161819
161880
161876
161911
161921
161998
161996
161875
161863
161858
161858
161876
161788
161817
161840
161865
161944
161884
161820
161859
161870
161844
161818
161853
161836
161829
161832
161835
161826
161799
161714
161715
161715
161799
161851
161893
161960
161905
161924
161948
161878
161882
161858
161829
161876
161864
161859
161899
161914
161872
161788
161781
161684
161719
161777
161779
161741
161732
161775
161775
161756
161692
161637
161620
161610
161705
161843
161909
161902
161863
161795
161738
161705
161701
161725
161749
161803
161771
161750
161746
161697
161653
161619
161701
161809
161887
161879
161813
161817
161819
161857
161881
161819
161826
161854
161901
162007
161985
161839
161697
161605
161513
161383
161377
161343
161363
161453
161430
161415
161402
161389
161392
161423
161474
161520
161564
161631
161618
161695
161719
161708
161807
161782
161796
161785
161778
161775
161738
161752
161770
161746
161723
161746
161786
161813
161849
161808
161758
161775
161808
161797
161750
161712
161805
161895
162024
161925
161780
161816
161811
161810
161832
161809
161822
161772
161788
161826
161823
161870
161826
161834
161869
161772
161812
161839
161821
161781
161734
161765
161824
161952
161884
161832
161837
161868
161937
161938
161967
161934
161894
161853
161837
161740
161745
161759
161870
161869
161857
161952
161988
162003
161929
161998
161991
161941
161936
161981
161915
161934
161938
161934
161974
162007
162006
162015
162032
162074
162055
162054
162050
162023
161961
161958
162036
162022
161983
161963
161956
162008
161983
161948
162032
161980
161992
162061
162011
162009
161975
161926
161899
161901
161963
161912
161941
161956
161971
161973
161935
161947
161899
161933
161948
161891
161896
161943
161933
161970
161953
161936
161871
161830
161855
161772
161762
161790
161810
161831
161860
161903
161910
161897
161876
161831
161844
161841
161803
161805
161789
161848
161831
161843
161790
161699
161788
161809
161823
161822
161801
161914
161869
161850
161876
161846
161862
161876
161841
161813
161790
161930
161931
161878
161819
161737
161813
161863
161871
161872
161895
161897
161931
161911
161896
161824
161839
161964
162043
161973
161847
161849
161881
161831
161804
161738
161823
161943
161985
161967
161916
161906
161949
161863
161788
161772
161834
161907
161926
161934
161899
161890
161850
161801
161801
161751
161804
161837
161831
161883
161895
161941
161868
161779
161737
161650
161702
161758
161811
161904
161914
161940
161912
161797
161714
161734
161751
161796
161790
161720
161727
161792
161799
161772
161779
161741
161763
161796
161770
161711
161627
161670
161693
161755
161808
161734
161764
161762
161766
161720
161648
161651
161611
161625
161632
161574
161607
161650
161654
161687
161627
161586
161627
161603
161552
161625
161666
161545
161556
161576
161595
161750
161729
161692
161676
161613
161629
161621
161625
161611
161561
161493
161507
161597
161624
161560
161637
161661
161685
161679
161599
161588
161558
161590
161608
161577
161528
161553
161528
161486
161543
161610
161561
161579
161562
161565
161563
161622
161603
161612
161633
161635
161610
161685
161681
161670
161701
161667
161612
161607
161585
161572
161546
161622
161646
161558
161607
161612
161603
161634
161571
161573
161551
161701
161801
161743
161705
161684
161654
161645
161613
161629
161633
161634
161610
161566
161633
161717
161693
161659
161669
161735
161797
161766
161781
161727
161631
161613
161671
161796
161915
162028
162011
161974
161967
161920
161909
161865
161820
161743
161730
161772
161739
161569
161380
161245
161226
161208
161228
161302
161418
161495
161424
161410
161442
161412
161376
161364
161459
161546
161533
161613
161637
161620
161531
161505
161643
161635
161639
161679
161674
161664
161625
161547
161482
161447
161479
161605
161629
161590
161498
161492
161436
161478
161567
161551
161569
161558
161526
161557
161551
161630
161596
161504
161470
161443
161439
161457
161510
161476
161477
161488
161546
161474
161429
161424
161434
161472
161464
161455
161475
161517
161488
161531
161441
161394
161380
161393
161491
161558
161525
161535
161509
161470
161420
161362
161470
161525
161498
161445
161513
161539
161500
161458
161462
161382
161350
161388
161469
161575
161610
161577
161536
161442
161382
161326
161372
161412
161436
161521
161464
161531
161516
161507
161523
161504
161513
161546
161584
161532
161490
161476
161420
161527
161526
161447
161510
161558
161573
161593
161550
161467
161400
161412
161422
161332
161339
161350
161381
161455
161402
161397
161356
161362
161344
161291
161337
161357
161373
161340
161293
161282
161288
161311
161357
161298
161344
161413
161389
161312
161264
161254
161274
161257
161250
161282
161296
161309
161294
161296
161389
161425
161340
161323
161290
161217
161203
161221
161259
161260
161267
161270
161291
161341
161341
161251
161290
161255
161262
161266
161222
161235
161262
161295
161327
161207
161193
161279
161277
161242
161324
161335
161354
161381
161348
161276
161256
161286
161288
161267
161275
161420
161508
161459
161388
161316
161321
161276
161303
161382
161403
161427
161451
161408
161345
161334
161351
161302
161252
161260
161267
161378
161368
161341
161363
161314
161385
161366
161363
161397
161393
161387
161304
161262
161305
161262
161319
161418
161403
161386
161336
161335
161333
161289
161326
161353
161376
161381
161397
161350
161324
161339
161295
161291
161292
161304
161277
161258
161194
161254
161238
161424
161487
161370
161365
161365
161287
161345
161328
161345
161317
161319
161332
161345
161315
161299
161282
161236
161292
161338
161307
161326
161313
161225
161150
161103
161232
161376
161413
161380
161311
161318
161319
161326
161255
161132
161173
161235
161335
161426
161345
161387
161352
161268
161276
161283
161314
161285
161324
161338
161253
161279
161330
161332
161326
161281
161405
161424
161492
161406
161350
161415
161425
161387
161308
161279
161299
161303
161331
161399
161455
161533
161524
161447
161355
161331
161347
161342
161382
161509
161476
161501
161535
161528
161467
161397
161439
161536
161582
161539
161499
161497
161501
161473
161491
161434
161436
161478
161455
161454
161514
161613
161622
161541
161477
161449
161455
161496
161507
161477
161457
161493
161518
161530
161520
161409
161452
161513
161507
161529
161575
161569
161503
161548
161500
161405
161348
161314
161401
161498
161488
161496
161490
161463
161445
161408
161413
161437
161380
161379
161363
161394
161408
161399
161319
161288
161348
161398
161378
161316
161330
161411
161459
161439
161350
161278
161340
161365
161370
161356
161379
161448
161480
161437
161437
161444
161415
161443
161466
161488
161521
161519
161485
161440
161322
161236
161274
161376
161320
161212
161114
161054
161009
160960
160896
160858
160855
160890
160875
160962
161035
161160
161241
161182
161187
161179
161207
161225
161290
161292
161281
161282
161290
161270
161237
161180
161195
161212
161228
161230
161302
161384
161311
161213
161217
161200
161221
161194
161199
161333
161315
161384
161369
161266
161260
161281
161305
161290
161280
161337
161290
161303
161314
161245
161260
161187
161268
161324
161233
161277
161305
161307
161318
161357
161311
161283
161295
161267
161258
161222
161225
161230
161345
161397
161321
161299
161323
161299
161290
161343
161298
161361
161367
161424
161386
161310
161365
161384
161368
161279
161269
161388
161379
161357
161295
161238
161265
161299
161386
161369
161353
161405
161354
161356
161308
161277
161268
161248
161261
161333
161354
161365
161365
161321
161324
161266
161269
161249
161180
161187
161195
161259
161247
161307
161387
161279
161337
161249
161173
161153
161154
161189
161234
161275
161263
161199
161178
161141
161087
161082
161094
161154
161180
161208
161185
161089
161062
161098
161105
161060
161040
161073
161066
161031
161118
161047
161011
160989
161013
161093
161073
161134
161124
161137
161092
160990
160984
160994
161001
160994
160981
161152
161173
161074
161045
161074
161070
161014
160942
160939
160970
160985
161003
160957
160995
161026
161107
161108
161084
161008
160924
160928
160989
161083
161190
161144
161042
161010
160983
160973
160938
160951
160972
161087
161067
161027
160970
160943
160958
161035
161066
161089
161112
161056
161008
160905
160911
160932
160973
161009
160996
161013
161033
161031
160990
160907
160858
160777
160804
160940
160979
161073
161046
161004
160994
160951
160886
160881
160907
160907
160903
160873
160913
161024
161033
160933
160903
160907
160857
160872
160860
160906
160980
160959
160930
160881
160862
160824
160836
160836
160863
160963
161029
161012
160958
160869
160778
160785
160804
160806
160801
160805
160840
160892
160913
160930
160938
160896
160892
160893
160843
160856
160890
160860
160824
160752
160761
160781
160749
160790
160844
160894
160908
160915
160869
160759
160753
160804
160770
160792
160787
160754
160815
160824
160790
160739
160658
160601
160617
160729
160841
160872
160834
160842
160810
160787
160817
160812
160794
160808
160817
160859
160843
160828
160819
160756
160689
160629
160703
160775
160809
160883
160901
160877
160825
160783
160805
160784
160789
160785
160708
160683
160729
160760
160783
160756
160740
160753
160714
160686
160692
160797
160831
160848
160778
160743
160779
160801
160771
160798
160760
160771
160780
160726
160690
160705
160736
160713
160724
160746
160751
160754
160756
160790
160767
160699
160634
160606
160595
160684
160779
160915
160977
160938
160911
160838
160828
160788
160809
160877
160869
160909
160874
160892
160802
160624
160584
160520
160427
160322
160303
160291
160322
160319
160303
160318
160533
160592
160503
160508
160510
160602
160652
160731
160748
160728
160726
160683
160686
160701
160691
160712
160727
160721
160803
160730
160789
160755
160737
160695
160590
160641
160704
160890
160890
160740
160775
160741
160697
160687
160668
160741
160759
160742
160850
160745
160612
160679
160734
160795
160815
160825
160791
160742
160728
160671
160720
160721
160739
160712
160715
160732
160717
160727
160686
160650
160652
160669
160708
160748
160729
160821
160877
160745
160747
160767
160765
160740
160742
160718
160709
160737
160786
160819
160760
160705
160714
160721
160790
160780
160739
160721
160754
160797
160798
160767
160861
160836
160774
160808
160794
160854
160879
160865
160878
160784
160749
160675
160607
160617
160662
160777
160935
160959
160961
160869
160884
160922
160845
160829
160816
160835
160832
160806
160839
160863
160838
160821
160757
160753
160760
160824
160837
160835
160823
160743
160827
160769
160685
160680
160657
160720
160708
160797
160850
160851
160893
160922
160856
160823
160769
160749
160795
160766
160795
160798
160786
160781
160808
160816
160760
160832
160862
160815
160756
160747
160819
160847
160762
160712
160734
160776
160827
160915
160897
160748
160736
160761
160738
160777
160727
160728
160738
160719
160803
160805
160829
160851
160812
160788
160748
160852
160823
160836
160881
160846
160870
160821
160841
160753
160716
160852
160905
160900
160915
160905
160875
160792
160786
160834
160786
160878
160911
160905
160905
160815
160843
160828
160856
160876
160796
160852
160920
160968
161026
160973
160931
160889
160876
160876
160895
160920
160910
160933
160922
160824
160860
160931
160903
160961
160912
160922
160953
161000
160957
160890
160963
160959
160902
160910
160819
160829
160897
160971
161051
160972
160978
161002
160960
160923
160863
160909
160916
160944
160952
160928
160848
160869
160940
160899
160906
160927
160871
160868
160948
160920
160841
160779
160794
160774
160808
160873
160957
160905
160905
160891
160920
160936
160848
160850
160877
160895
160931
160917
160893
160844
160884
160810
160809
160837
160860
160984
160947
160909
160874
160837
160883
160877
160934
160978
160989
160995
160873
160849
160905
160877
160894
160904
160918
160895
160814
160893
160886
160964
161000
161029
160966
160856
160898
160950
160878
160972
161017
161009
161016
160973
160994
160922
160896
160861
160797
160877
160920
160968
161066
161069
161018
161011
160995
160930
160896
160930
160924
160890
160934
160910
160996
160936
160932
160951
160909
160947
160990
161026
161051
160987
160965
160937
160904
160939
160936
160946
160943
160945
160981
161025
161073
161063
160988
161038
161069
161126
161232
161270
161289
161208
161173
161223
161282
161170
161113
161030
160928
160979
161025
160910
160776
160715
160668
160658
160652
160680
160721
160667
160734
160739
160809
160859
160903
160932
160854
160850
160990
161057
161108
161166
161212
161169
161090
161076
161076
161153
161123
161070
161073
161133
161129
161180
161194
161176
161120
161137
161221
161271
161265
161171
161155
161139
161163
161170
161111
161163
161245
161254
161258
161254
161282
161277
161200
161254
161199
161263
161350
161320
161284
161227
161245
161302
161372
161385
161282
161279
161311
161335
161397
161348
161317
161335
161372
161380
161299
161352
161422
161434
161401
161327
161391
161485
161505
161473
161438
161429
161489
161552
161567
161514
161487
161525
161571
161559
161573
161681
161715
161661
161636
161621
161653
161741
161786
161680
161697
161776
161757
161820
161818
161811
161749
161710
161743
161777
161818
161887
161884
161904
161883
161847
161886
161939
161919
161850
161790
161846
161855
161900
161903
161888
161864
161886
161942
162000
162002
162009
161967
161984
161984
161939
162029
162040
162009
161916
161873
161939
161949
161965
161984
161989
161984
161926
161955
161971
162021
162040
161994
161999
162012
161969
161891
161920
161944
162011
162028
162042
162097
162145
162157
162099
162032
162002
161986
161992
161976
161993
161961
161966
162041
162085
162133
162140
162051
162064
162001
161989
161989
161974
161996
162031
162081
162100
162091
162068
162066
162129
162079
162063
162078
162053
162152
162185
162189
162134
162036
162082
162117
162136
162245
162195
162213
162242
162208
162171
162114
162118
162117
162099
162155
162153
162106
162117
162056
162059
162047
162114
162155
162172
162191
162119
162140
162118
162086
162085
162118
162151
162241
162231
162157
162079
162134
162187
162183
162167
162074
162086
162135
162161
162182
162184
162206
162173
162066
162007
162035
162097
162119
162079
162057
162055
162071
162064
162061
162063
161940
162015
162116
162164
162075
162040
162058
162114
162061
162007
161960
161967
162043
162061
161997
161984
161966
161881
161852
161917
161934
162010
162022
162022
162015
161962
161953
161933
161903
161856
161775
161805
161870
161862
161859
161868
161859
161837
161771
161747
161724
161793
161862
161817
161811
161756
161786
161865
161841
161771
161673
161685
161769
161757
161759
161757
161726
161721
161756
161667
161608
161582
161591
161628
161715
161727
161685
161669
161600
161591
161569
161527
161508
161541
161533
161500
161521
161511
161531
161502
161446
161510
161594
161607
161567
161523
161481
161442
161419
161402
161381
161379
161400
161456
161487
161472
161574
161492
161467
161450
161376
161395
161399
161347
161382
161382
161366
161334
161314
161317
161266
161281
161320
161312
161283
161332
161414
161380
161308
161231
161153
161158
161247
161222
161214
161194
161226
161252
161166
161177
161158
161122
161165
161186
161195
161113
161145
161122
161031
161030
161000
161019
161049
161026
161021
160993
161021
160977
160940
160899
160919
160930
160892
160889
160940
160918
160898
160906
160902
160832
160701
160755
160846
160928
160946
160874
160905
160996
160986
160986
160956
160960
160940
160899
160864
160819
160844
160805
160733
160717
160581
160560
160474
160340
160303
160244
160225
160297
160295
160299
160256
160262
160307
160283
160295
160316
160391
160474
160509
160484
160321
160303
160367
160423
160446
160498
160503
160462
160386
160310
160228
160308
160445
160468
160438
160371
160306
160319
160291
160256
160219
160243
160246
160239
160234
160202
160289
160267
160188
160140
160127
160160
160127
160111
160191
160228
160240
160235
160148
160073
160041
160057
160112
160154
160143
160103
160109
160042
159993
159966
159955
159983
160051
160068
160131
159999
159933
159936
159956
159988
159991
159947
159951
160011
160035
159971
159937
159954
159922
159893
159795
159865
159915
159871
159885
159913
159940
159910
159923
159882
159817
159765
159776
159829
159783
159828
159983
159926
159866
159852
159755
159738
159760
159777
159743
159737
159779
159779
159769
159749
159811
159794
159748
159757
159759
159680
159713
159691
159694
159632
159567
159588
159606
159645
159615
159558
159566
159576
159569
159556
159494
159518
159551
159538
159587
159494
159463
159429
159384
159376
159353
159389
159401
159499
159481
159423
159489
159449
159389
159315
159282
159268
159336
159398
159347
159249
159274
159278
159274
159283
159209
159218
159242
159195
159217
159228
159187
159193
159212
159188
159123
159142
159138
159154
159074
159086
159185
159167
159085
159036
158978
158980
159032
159090
159081
159117
159154
159159
159086
159041
158957
158969
158952
158998
159045
159009
159069
159071
158974
158920
158818
158853
158997
159004
158998
158961
159020
158974
158878
158831
158811
158826
158893
158943
158849
158826
158847
158872
158806
158796
158772
158801
158869
158938
158941
158843
158840
158822
158837
158781
158708
158710
158756
158737
158718
158655
158741
158826
158864
158804
158717
158721
158702
158696
158674
158604
158685
158738
158766
158774
158667
158639
158644
158644
158625
158629
158702
158649
158599
158585
158551
158539
158622
158683
158680
158636
158636
158608
158637
158572
158442
158447
158445
158508
158568
158494
158504
158556
158542
158531
158531
158497
158494
158439
158367
158340
158363
158415
158450
158515
158459
158443
158503
158577
158512
158422
158432
158395
158332
158369
158412
158437
158476
158510
158430
158366
158430
158429
158380
158376
158352
158334
158294
158264
158344
158392
158435
158347
158304
158329
158325
158356
158364
158373
158355
158349
158393
158350
158311
158286
158273
158317
158325
158322
158298
158297
158305
158300
158354
158367
158257
158308
158287
158309
158347
158313
158290
158264
158245
158227
158218
158299
158207
158232
158278
158277
158357
158341
158274
158246
158219
158241
158262
158232
158233
158219
158277
158223
158140
158178
158110
158107
158067
158105
158202
158226
158268
158251
158162
158078
158048
158143
158215
158264
158247
158138
158175
158218
158319
158242
158143
158194
158283
158320
158349
158328
158352
158335
158379
158431
158327
158300
158163
158115
158165
158097
158044
157944
157792
157688
157592
157714
157786
157849
157819
157752
157826
157832
157852
157908
157899
157943
157980
158020
158062
158032
158120
158060
158031
158049
158006
158017
158022
158017
158036
158005
158050
157999
158016
158024
158059
158103
158015
157983
157979
157958
157980
158055
158061
158070
158029
158018
158025
158025
157990
158020
158124
158160
158107
158027
157914
157925
157890
157918
157954
157963
157991
157984
157943
157903
157844
157933
157949
158012
157981
157903
157927
157967
157910
157839
157829
157868
157982
158102
158118
158094
158117
158083
157997
157927
157884
157917
157956
158016
157963
157893
157962
158001
158025
158049
158039
157985
158009
158019
158004
158013
158101
158074
158055
158033
157977
157982
157919
157934
158071
158095
158129
158125
158087
158033
157967
157952
158005
157974
157947
157964
157998
158029
158034
157968
157959
157983
157965
157974
157952
157954
158012
158036
157988
157967
157931
157976
157938
157879
157902
157851
157884
157957
157960
157954
157852
157851
157826
157833
157868
157830
157868
157901
157870
157871
157803
157790
157812
157770
157789
157749
157825
157906
157934
157882
157884
157874
157861
157870
157872
157802
157823
157835
157803
157733
157732
157835
157900
157873
157874
157790
157802
157791
157864
157905
157873
157798
157733
157766
157767
157749
157779
157841
157874
157962
157883
157820
157815
157791
157819
157787
157864
157874
157884
157913
157899
157877
157861
157851
157855
157818
157900
157938
157938
157951
157912
157868
157830
157790
157809
157830
157991
158003
157972
157900
157815
157813
157877
157914
157944
157915
157886
157946
157997
158004
157911
157842
157834
157878
157848
157788
157789
157857
157922
157877
157849
157957
158014
158002
157962
157908
157975
157957
157909
157884
157867
157886
157972
158041
157994
157903
157921
157929
157909
157907
157882
157892
157825
157811
157886
157881
157881
157859
157806
157873
157943
157952
157906
157846
157833
157778
157828
157879
157865
157847
157807
157797
157832
157925
157917
157861
157927
157933
157900
157852
157778
157777
157786
157864
157904
157932
157853
157839
157892
157855
157789
157792
157837
157784
157775
157767
157823
157867
157916
157924
157898
157845
157816
157828
157843
157763
157828
157884
157869
157879
157851
157886
157880
157817
157767
157814
157936
157951
158034
158001
157945
157927
157880
157839
157953
157967
157997
158046
158014
158020
157898
157909
157935
157985
157972
157900
157925
157941
157984
158005
157976
157980
158013
158059
158052
158003
157995
158021
158063
158125
158051
158110
158044
158060
158107
158051
157959
158031
158010
158032
158076
158103
158053
157964
157973
157936
158023
158174
158133
158123
158097
158058
158065
158001
158021
158014
158033
158057
158080
158131
158080
158113
158050
158033
158019
158046
158086
158119
158143
158181
158139
158214
158202
158248
158341
158275
158309
158377
158311
158282
158276
158339
158281
158094
158056
157986
157925
157837
157815
157797
157770
157748
157730
157765
157759
157758
157816
157842
157869
157855
157832
157964
157951
157968
158031
158100
158226
158253
158209
158195
158204
158188
158150
158117
158090
158070
158081
158090
158145
158182
158214
158280
158226
158227
158259
158191
158245
158288
158268
158251
158121
158111
158112
158049
158126
158191
158220
158241
158245
158276
158301
158326
158297
158265
158299
158240
158233
158331
158322
158326
158219
158180
158197
158272
158352
158349
158386
158318
158306
158293
158222
158236
158248
158200
158205
158269
158306
158404
158443
158371
158353
158415
158425
158411
158393
158366
158392
158434
158446
158457
158399
158403
158374
158403
158407
158373
158432
158460
158420
158411
158295
158286
158331
158427
158429
158456
158565
158552
158520
158547
158461
158459
158399
158497
158521
158479
158502
158575
158578
158545
158487
158470
158493
158507
158470
158393
158464
158529
158502
158500
158495
158457
158407
158516
158483
158451
158503
158454
158387
158405
158371
158405
158452
158401
158437
158426
158456
158534
158571
158490
158438
158411
158383
158378
158400
158386
158479
158488
158499
158476
158409
158451
158452
158474
158427
158406
158517
158501
158472
158479
158420
158392
158365
158359
158346
158420
158511
158494
158471
158473
158451
158438
158475
158482
158465
158495
158472
158442
158452
158448
158457
158567
158554
158472
158445
158494
158563
158558
158604
158605
158552
158595
158611
158535
158468
158477
158505
158618
158682
158658
158520
158525
158501
158536
158529
158508
158564
158620
158686
158737
158680
158653
158590
158582
158643
158603
158647
158663
158636
158669
158566
158564
158584
158648
158711
158714
158640
158622
158621
158637
158574
158585
158571
158624
158692
158618
158657
158691
158666
158661
158619
158593
158577
158528
158484
158489
158644
158741
158768
158745
158718
158689
158675
158626
158607
158609
158634
158691
158669
158690
158656
158688
158736
158774
158727
158638
158667
158692
158701
158705
158725
158725
158711
158680
158647
158585
158544
158592
158698
158805
158778
158791
158764
158711
158660
158605
158663
158760
158726
158664
158643
158707
158716
158698
158710
158688
158763
158808
158790
158745
158661
158703
158727
158761
158758
158771
158818
158799
158765
158798
158796
158813
158825
158806
158781
158759
158785
158803
158876
158886
158877
158890
158832
158777
158763
158739
158845
158904
158940
158908
158813
158802
158887
158930
158915
158829
158857
158825
158861
158952
158938
158967
158996
158973
158938
158875
158925
158904
158908
158939
158913
159010
158959
158966
158969
158922
158969
159044
159084
159110
159018
158958
158981
159009
159016
159024
159013
158976
159008
159052
159060
159078
159131
159104
159101
159098
159114
159152
159191
159191
159153
159071
159065
159090
159102
159134
159179
159186
159159
159156
159138
159109
159109
159109
159111
159101
159140
159136
159141
159191
159199
159204
159172
159117
159127
159017
159001
159014
159087
159178
159192
159252
159275
159182
159131
159103
159119
159176
159184
159238
159219
159146
159140
159162
159133
159066
159164
159150
159093
159103
159076
159030
159081
159082
159043
159025
159095
159111
159125
159218
159257
159294
159282
159219
159145
159113
159180
159275
159330
159461
159435
159525
159495
159411
159368
159315
159249
159225
159183
159155
159031
158918
158829
158777
158811
158873
158856
158865
158866
158826
158818
158830
158858
158899
158957
158943
159013
159131
159173
159199
159185
159184
159215
159258
159248
159169
159205
159262
159179
159167
159202
159225
159213
159207
159229
159223
159199
159142
159158
159278
159264
159287
159238
159202
159187
159174
159302
159359
159383
159366
159241
159216
159232
159281
159287
159261
159274
159306
159282
159207
159162
159249
159317
159303
159313
159238
159312
159332
159324
159290
159227
159246
159254
159200
159255
159254
159249
159268
159253
159342
159365
159385
159290
159277
159311
159352
159286
159294
159288
159345
159336
159297
159244
159262
159275
159295
159360
159301
159331
159338
159312
159307
159244
159223
159236
159246
159230
159266
159372
159414
159384
159364
159357
159349
159299
159231
159295
159277
159276
159272
159220
159319
159314
159332
159221
159209
159234
159244
159158
159160
159111
159084
159201
159287
159258
159191
159187
159202
159194
159152
159128
159210
159228
159192
159171
159100
159093
159119
159115
159079
159110
159135
159104
159085
159019
159028
159057
159080
159124
159073
159024
159074
159007
159007
158991
158984
159066
159083
159123
159096
159135
159076
159029
159049
159064
159007
159006
159036
159026
159040
158980
159017
159069
159064
159033
158940
158985
159029
159055
159032
159065
159076
159055
159020
159081
159078
159064
159047
159030
159053
159019
159058
159018
158980
159006
159037
159099
159093
159077
159077
159053
159080
159060
159019
158996
158917
158954
159015
159060
159084
159050
159069
159052
158990
158916
158862
158926
158947
158884
158915
158933
159030
159030
159025
158955
158903
158917
158896
158971
159019
159036
159088
159052
158969
158913
158845
158861
158843
158816
158857
158882
158928
158952
158898
158888
158872
158921
158915
158888
158854
158882
158923
158899
158901
158858
158836
158806
158824
158844
158870
158826
158827
158867
158855
158733
158685
158711
158794
158827
158873
158852
158850
158799
158806
158795
158757
158727
158717
158692
158683
158740
158840
158826
158766
158672
158625
158648
158722
158808
158811
158746
158771
158775
158708
158650
158590
158664
158682
158674
158681
158649
158675
158663
158677
158685
158676
158674
158659
158639
158615
158579
158601
158616
158628
158626
158631
158648
158671
158648
158616
158619
158650
158658
158788
158718
158638
158639
158653
158617
158680
158650
158686
158655
158573
158596
158621
158632
158684
158703
158721
158692
158667
158603
158590
158564
158533
158620
158648
158697
158660
158603
158586
158598
158622
158603
158556
158691
158763
158772
158745
158642
158735
158718
158636
158624
158620
158708
158696
158656
158627
158615
158646
158731
158728
158706
158622
158616
158645
158628
158636
158672
158690
158650
158634
158635
158577
158590
158611
158612
158592
158629
158652
158636
158662
158674
158631
158607
158640
158643
158685
158713
158701
158689
158655
158635
158575
158606
158615
158614
158646
158640
158685
158695
158637
158628
158549
158490
158459
158474
158494
158513
158611
158591
158561
158549
158534
158518
158507
158516
158560
158566
158675
158630
158604
158632
158543
158494
158550
158537
158567
158556
158547
158516
158501
158498
158552
158541
158545
158557
158566
158567
158585
158492
158498
158527
158450
158483
158570
158598
158591
158601
158697
158725
158674
158676
158619
158678
158687
158592
158533
158434
158366
158270
158168
158173
158121
158149
158172
158214
158136
158081
158194
158293
158287
158272
158252
158316
158323
158327
158387
158445
158523
158531
158503
158524
158484
158523
158517
158521
158512
158515
158549
158579
158512
158501
158436
158473
158562
158638
158601
158589
158670
158705
158670
158676
158590
158588
158608
158619
158610
158540
158532
158577
158590
158592
158584
158636
158661
158591
158587
158607
158607
158597
158571
158616
158607
158709
158663
158717
158747
158717
158681
158666
158654
158616
158579
158619
158663
158652
158682
158731
158777
158768
158734
158707
158680
158660
158642
158672
158683
158680
158717
158777
158787
158801
158788
158764
158729
158736
158714
158702
158768
158813
158768
158729
158720
158754
158756
158819
158859
158803
158820
158816
158785
158724
158722
158798
158775
158791
158788
158795
158934
158903
158804
158783
158807
158850
158878
158793
158785
158770
158814
158845
158817
158759
158759
158774
158805
158804
158775
158733
158783
158770
158718
158718
158696
158714
158823
158837
158804
158785
158830
158826
158823
158783
158721
158752
158743
158756
158757
158698
158759
158832
158876
158828
158836
158825
158780
158813
158781
158756
158792
158779
158772
158776
158677
158698
158768
158817
158872
158878
158922
158927
158889
158838
158739
158726
158819
158878
158884
158892
158927
158946
158937
158927
158860
158871
158825
158850
158922
158945
159037
159117
159049
158976
158953
158947
158982
158937
158911
158910
158910
158933
158946
158954
158915
158970
158931
158898
158990
159005
159079
159094
159056
158924
158826
158878
158917
159024
159031
158975
159063
159004
158960
158997
158942
158997
159017
159008
159009
158951
158943
159012
159009
158915
158845
158814
158817
158910
158997
158977
159055
159094
159060
159009
158956
158906
158962
159006
159037
159009
159010
158987
158993
158954
158865
158803
158822
158890
158991
159066
159045
159055
159005
158903
158777
158820
158843
158864
158952
158931
158936
158890
158935
158976
158891
158937
158960
158956
158960
158933
158944
158948
158942
158874
158795
158803
158795
158880
158952
158931
158935
158931
158892
158873
158835
158854
158901
158914
158893
158927
158959
158936
158918
158894
158870
158869
158892
158898
158904
158822
158810
158815
158849
158917
158907
158932
158959
158985
158984
158956
159001
158996
158959
158867
158850
158888
158946
159014
159047
159023
159031
159053
159099
159097
159011
158984
158971
159006
159030
158972
159023
159053
159051
159090
159073
159096
159076
159050
159047
159071
159138
159142
159079
159105
159092
159130
159130
159145
159163
159154
159161
159151
159097
159057
159093
159180
159183
159176
159172
159150
159195
159243
159178
159180
159088
159158
159267
159207
159200
159158
159189
159201
159213
159236
159231
159307
159301
159266
159259
159251
159273
159250
159254
159214
159164
159222
159245
159264
159210
159264
159261
159249
159298
159286
159197
159197
159163
159165
159146
159151
159233
159284
159185
159168
159084
159070
159109
159180
159223
159266
159309
159302
159244
159316
159229
159154
159151
159176
159172
159141
159209
159279
159315
159303
159292
159296
159221
159265
159300
159316
159403
159509
159522
159513
159457
159436
159404
159384
159323
159154
159115
159049
159004
159037
158985
158886
158823
158908
158954
158919
158908
158961
158972
158990
158888
158933
158965
159014
159074
159160
159192
159208
159222
159210
159185
159202
159214
159192
159288
159263
159261
159267
159250
159255
159225
159216
159220
159191
159178
159164
159308
159340
159406
159432
159314
159287
159263
159260
159281
159223
159270
159292
159287
159320
159279
159272
159232
159282
159261
159244
159347
159379
159363
159390
159309
159343
159314
159327
159337
159238
159255
159345
159335
159351
159276
159291
159273
159275
159257
159288
159402
159377
159367
159316
159292
159245
159270
159242
159214
159189
159232
159295
159273
159332
159366
159365
159347
159324
159329
159307
159317
159288
159315
159354
159310
159329
159369
159343
159328
159284
159352
159390
159373
159363
159322
159317
159304
159263
159247
159267
159288
159271
159278
159325
159257
159281
159303
159274
159317
159242
159246
159284
159344
159395
159306
159249
159306
159238
159200
159192
159301
159320
159293
159233
159146
159130
159162
159203
159217
159144
159181
159141
159178
159212
159116
159117
159123
159118
159152
159082
159123
159146
159135
159122
159052
159072
159153
159141
159145
159073
159039
159026
159077
159130
159055
159023
159072
159121
159088
159069
159074
159012
159032
159075
159038
159025
159018
158947
158913
158962
159008
159017
158953
158950
158962
159006
159069
159100
159037
159025
159036
159065
159088
159116
159100
159078
159068
159057
159026
158995
158994
158994
158997
159067
159074
159047
159030
158964
158951
158913
158981
158991
158970
159000
158955
158971
158980
158966
158942
158873
158919
158997
159022
159117
159018
158991
158948
158966
159006
158962
158985
158983
158993
158975
158907
158876
158850
158837
158824
158821
158864
158942
158952
158959
158916
158898
158938
158866
158825
158756
158794
158835
158859
158908
158847
158859
158886
158865
158833
158822
158844
158843
158839
158828
158781
158796
158840
158839
158778
158752
158780
158747
158755
158726
158738
158808
158773
158705
158684
158649
158691
158766
158775
158757
158709
158721
158711
158686
158648
158642
158714
158813
158711
158721
158749
158671
158654
158676
158620
158562
158592
158624
158653
158619
158620
158706
158692
158662
158669
158636
158620
158667
158685
158636
158559
158591
158583
158595
158608
158540
158586
158608
158655
158710
158647
158590
158541
158566
158602
158658
158681
158656
158615
158621
158594
158602
158624
158636
158593
158538
158585
158639
158661
158664
158619
158635
158642
158626
158593
158574
158590
158587
158560
158515
158462
158517
158537
158520
158533
158466
158467
158516
158634
158591
158522
158512
158521
158516
158553
158540
158586
158554
158546
158549
158524
158502
158463
158397
158420
158416
158479
158541
158562
158519
158421
158469
158541
158491
158425
158379
158400
158392
158378
158410
158393
158456
158440
158415
158405
158313
158340
158424
158489
158487
158496
158526
158457
158391
158431
158409
158424
158467
158479
158476
158420
158379
158414
158447
158451
158424
158462
158500
158512
158479
158427
158384
158353
158463
158403
158307
158382
158407
158463
158546
158511
158478
158450
158398
158353
158295
158322
158308
158299
158418
158465
158464
158401
158414
158459
158375
158378
158417
158371
158340
158313
158274
158345
158331
158330
158324
158388
158351
158265
158214
158121
158160
158231
158277
158296
158302
158289
158350
158366
158282
158229
158241
158259
158262
158237
158174
158182
158224
158287
158234
158157
158182
158277
158373
158414
158323
158419
158440
158487
158485
158370
158384
158337
158249
158212
158180
158173
158090
158029
157977
157836
157822
157790
157731
157703
157660
157716
157811
157862
157856
157892
157944
157958
157976
158032
158129
158173
158168
158170
158178
158131
158135
158126
158157
158151
158057
158041
158074
158124
158223
158181
158160
158140
158122
158101
158019
158085
158127
158163
158178
158098
158114
158139
158174
158221
158118
158104
158129
158177
158197
158192
158228
158165
158133
158063
158032
158149
158278
158275
158260
158263
158256
158212
158182
158127
158097
158217
158193
158241
158254
158231
158228
158282
158262
158218
158154
158168
158258
158280
158256
158265
158268
158281
158284
158280
158219
158264
158206
158266
158342
158257
158306
158296
158296
158382
158357
158302
158330
158317
158347
158277
158290
158370
158357
158270
158231
158346
158449
158390
158421
158306
158289
158289
158353
158370
158351
158342
158339
158340
158393
158403
158352
158318
158307
158343
158295
158338
158307
158347
158365
158366
158362
158280
158278
158316
158287
158300
158256
158245
158292
158279
158330
158405
158364
158322
158292
158332
158296
158289
158336
158319
158365
158390
158371
158350
158286
158295
158299
158287
158313
158263
158267
158298
158280
158298
158241
158223
158298
158443
158521
158417
158410
158400
158323
158272
158224
158236
158260
158352
158410
158378
158416
158438
158382
158343
158363
158367
158396
158421
158412
158364
158335
158386
158485
158465
158374
158324
158337
158308
158331
158400
158513
158527
158454
158384
158323
158333
158427
158479
158491
158422
158408
158380
158354
158370
158376
158430
158526
158598
158573
158467
158420
158441
158509
158506
158438
158434
158443
158421
158418
158414
158454
158428
158467
158487
158406
158425
158405
158436
158516
158522
158579
158524
158460
158436
158377
158414
158491
158536
158521
158459
158483
158470
158415
158375
158319
158383
158428
158522
158582
158535
158493
158457
158384
158382
158356
158352
158418
158607
158624
158530
158492
158464
158434
158443
158413
158403
158397
158416
158461
158504
158525
158538
158506
158440
158353
158380
158418
158398
158443
158446
158353
158386
158353
158305
158323
158406
158453
158492
158549
158482
158442
158437
158385
158349
158366
158434
158493
158512
158494
158494
158513
158455
158410
158435
158437
158436
158428
158455
158506
158473
158492
158499
158432
158450
158423
158455
158474
158497
158509
158557
158639
158628
158547
158521
158495
158545
158619
158674
158679
158648
158671
158693
158746
158717
158549
158611
158625
158638
158635
158649
158712
158741
158699
158641
158552
158662
158770
158824
158831
158797
158744
158705
158734
158712
158711
158703
158737
158781
158858
158831
158838
158836
158851
158902
158832
158810
158817
158828
158843
158875
158943
158891
158856
158802
158748
158755
158803
158912
158937
158948
158945
158882
158841
158796
158724
158845
158989
158983
158910
158899
158934
158920
158882
158969
158878
158805
158745
158797
158843
158921
159017
159020
158956
158922
158876
158922
158966
158946
158957
158935
158891
158907
158944
158908
158899
158961
158945
158946
158975
158885
158915
158982
158990
159006
158907
158882
158868
158930
159045
159045
159064
159043
159084
159145
159105
159086
159132
159152
159170
159175
159229
159164
159143
159063
158906
158870
158833
158807
158760
158653
158648
158585
158545
158586
158605
158689
158792
158857
158849
158816
158844
158880
158827
158874
158902
158942
158979
158985
159031
159089
159048
159032
159059
159043
159056
159040
159060
159125
159195
159164
159145
159165
159157
159131
159096
159122
159146
159104
159114
159150
159183
159191
159194
159215
159134
159126
159125
159185
159184
159221
159201
159171
159217
159252
159133
159168
159191
159166
159154
159142
159298
159373
159403
159378
159244
159253
159230
159171
159220
159244
159351
159424
159378
159340
159241
159230
159275
159272
159305
159321
159362
159339
159307
159333
159290
159349
159356
159376
159481
159502
159487
159467
159432
159426
159340
159354
159399
159475
159439
159378
159424
159434
159374
159405
159423
159390
159384
159429
159520
159494
159529
159545
159501
159457
159459
159457
159447
159493
159501
159492
159548
159509
159479
159450
159410
159517
159516
159547
159570
159573
159593
159492
159377
159377
159381
159474
159569
159569
159551
159514
159518
159544
159501
159456
159430
159488
159560
159567
159488
159439
159480
159497
159486
159492
159537
159635
159669
159668
159603
159538
159531
159562
159562
159591
159564
159567
159559
159545
159534
159589
159634
159600
159592
159615
159614
159570
159568
159634
159660
159612
159593
159590
159534
159603
159616
159691
159776
159783
159767
159700
159674
159689
159663
159656
159647
159646
159676
159676
159642
159639
159717
159750
159790
159766
159728
159751
159716
159743
159733
159702
159743
159795
159740
159694
159662
159762
159816
159813
159837
159778
159795
159814
159776
159741
159706
159693
159681
159676
159702
159748
159790
159827
159854
159852
159772
159715
159756
159748
159758
159716
159736
159773
159769
159726
159705
159677
159632
159652
159712
159742
159897
159857
159825
159807
159736
159777
159797
159770
159730
159782
159824
159887
159865
159838
159780
159734
159719
159758
159835
159875
159900
159863
159837
159792
159723
159670
159693
159781
159813
159768
159815
159922
159875
159857
159841
159872
159882
159848
159847
159797
159799
159872
159926
159996
159922
159904
159849
159842
159818
159740
159786
159835
159877
159926
159863
159821
159837
159867
159885
159839
159889
159910
159867
159840
159847
159796
159816
159925
159999
159987
159985
160019
159975
159926
159923
159884
159885
159868
159902
159871
159941
159954
160020
159974
159877
159837
159903
159973
160024
159955
159995
160011
159979
159979
159972
159979
160002
159974
159977
159897
159892
159984
160052
160108
160102
160075
160048
160024
160027
160055
160094
160113
160086
160061
159974
159975
159953
159955
160031
160107
160135
160170
160144
160110
160061
160072
160024
159939
160039
160147
160165
160153
160130
160025
159988
160041
160137
160211
160212
160176
160182
160170
160131
160085
160047
160070
160100
160151
160140
160113
160184
160191
160200
160226
160180
160120
160124
160132
160170
160211
160214
160251
160316
160245
160153
160169
160135
160102
160113
160057
160107
160190
160155
160223
160235
160203
160201
160166
160127
160120
160197
160262
160252
160187
160168
160160
160179
160166
160174
160107
160162
160216
160274
160282
160183
160087
160096
160152
160168
160219
160286
160277
160219
160234
160225
160309
160323
160324
160443
160437
160527
160558
160547
160420
160368
160405
160408
160424
160320
160249
160219
160108
159991
159960
159902
159970
159906
159908
159934
159883
159856
159880
159919
159968
159990
160011
160113
160149
160251
160228
160285
160335
160266
160230
160192
160242
160260
160231
160221
160275
160447
160452
160380
160350
160279
160267
160290
160349
160331
160353
160407
160444
160495
160449
160366
160407
160383
160305
160225
160260
160420
160493
160536
160463
160342
160326
160309
160380
160483
160537
160480
160507
160517
160497
160427
160438
160419
160456
160487
160448
160537
160573
160524
160503
160497
160432
160456
160523
160515
160453
160526
160573
160589
160590
160506
160485
160453
160441
160517
160506
160545
160526
160519
160548
160486
160540
160529
160515
160497
160475
160527
160561
160599
160599
160637
160663
160619
160609
160585
160552
160623
160639
160640
160627
160590
160630
160605
160560
160555
160596
160645
160636
160648
160642
160713
160703
160630
160585
160568
160594
160704
160726
160704
160680
160573
160610
160617
160668
160727
160702
160707
160697
160682
160639
160521
160529
160532
160610
160640
160586
160596
160609
160663
160677
160650
160747
160684
160681
160693
160671
160702
160696
160693
160621
160560
160507
160539
160676
160755
160661
160663
160684
160649
160642
160629
160684
160696
160685
160710
160702
160765
160812
160725
160665
160587
160621
160676
160708
160686
160696
160762
160748
160764
160750
160720
160809
160740
160670
160734
160782
160870
160893
160845
160823
160734
160780
160780
160850
160900
160826
160867
160878
160907
160905
160840
160840
160854
160791
160792
160785
160844
160963
161060
161000
160918
160958
160986
161001
160902
160807
160819
160864
160920
160975
161027
161010
161020
161076
161017
160887
160968
161009
161002
161023
160988
160955
160912
160901
160940
160912
160956
160983
160967
160934
160906
160960
160952
160902
160907
160928
160988
161083
161101
161057
161013
161007
160976
160941
160970
160935
160972
160980
160941
161011
161081
161166
161177
161086
161047
161000
161039
161067
161121
161084
161002
161049
160995
160881
160952
160971
161011
161036
161014
161072
161101
161157
161178
161152
161064
160959
160971
160977
161081
161261
161256
161228
161144
161061
161059
161099
161147
161173
161157
161163
161167
161146
161182
161133
161135
161040
161054
161084
161142
161243
161191
161173
161198
161126
161141
161124
161155
161209
161206
161191
161177
161202
161288
161286
161243
161172
161258
161192
161180
161187
161218
161327
161320
161274
161279
161250
161265
161309
161343
161371
161315
161291
161328
161333
161355
161300
161297
161311
161350
161382
161313
161335
161363
161366
161352
161282
161352
161349
161319
161331
161318
161382
161347
161323
161320
161336
161499
161541
161484
161365
161297
161333
161298
161335
161309
161274
161363
161392
161386
161402
161367
161355
161373
161361
161354
161275
161327
161298
161338
161406
161344
161418
161379
161340
161301
161252
161384
161435
161378
161326
161320
161297
161287
161323
161349
161263
161241
161298
161388
161429
161361
161383
161350
161309
161268
161264
161339
161379
161472
161478
161312
161348
161368
161339
161358
161385
161395
161398
161444
161445
161373
161336
161354
161341
161352
161342
161363
161363
161348
161379
161349
161356
161303
161343
161315
161239
161292
161311
161395
161358
161236
161256
161241
161231
161202
161220
161319
161471
161522
161458
161384
161493
161487
161374
161357
161289
161323
161362
161352
161343
161376
161407
161418
161413
161464
161462
161513
161566
161619
161602
161604
161583
161575
161560
161521
161426
161445
161398
161359
161355
161212
161083
161045
161046
161085
161023
161075
161108
161092
161155
161192
161263
161285
161235
161279
161256
161339
161396
161463
161487
161447
161451
161442
161450
161452
161424
161480
161588
161589
161504
161450
161508
161535
161483
161469
161425
161508
161563
161602
161622
161566
161571
161586
161571
161485
161449
161498
161574
161632
161641
161570
161594
161604
161571
161571
161584
161614
161586
161607
161608
161556
161517
161600
161597
161562
161522
161569
161636
161636
161667
161605
161626
161554
161581
161568
161558
161586
161582
161591
161569
161587
161645
161607
161623
161608
161566
161605
161591
161634
161670
161619
161624
161629
161594
161579
161550
161583
161657
161659
161620
161583
161580
161623
161649
161624
161611
161603
161601
161646
161691
161609
161566
161560
161485
161502
161470
161485
161541
161661
161692
161715
161727
161639
161631
161568
161493
161508
161557
161608
161620
161532
161525
161518
161482
161443
161410
161440
161511
161503
161430
161451
161508
161540
161508
161429
161382
161459
161459
161462
161469
161437
161447
161435
161410
161328
161288
161362
161375
161458
161420
161322
161370
161426
161410
161446
161463
161484
161518
161442
161429
161440
161476
161488
161464
161435
161403
161405
161408
161442
161493
161487
161456
161515
161465
161414
161419
161506
161531
161461
161434
161465
161460
161559
161551
161474
161409
161431
161454
161453
161580
161549
161527
161537
161530
161526
161469
161519
161554
161569
161503
161494
161508
161467
161477
161541
161503
161548
161544
161478
161453
161470
161528
161512
161526
161463
161430
161515
161540
161602
161595
161592
161559
161487
161500
161441
161482
161559
161495
161487
161457
161479
161533
161569
161494
161464
161419
161425
161458
161493
161504
161413
161427
161487
161575
161544
161389
161405
161402
161405
161379
161352
161435
161489
161475
161487
161421
161391
161393
161405
161442
161391
161413
161397
161401
161393
161258
161356
161352
161311
161372
161340
161362
161419
161408
161375
161317
161324
161372
161400
161479
161418
161403
161360
161322
161356
161305
161313
161327
161377
161427
161434
161392
161375
161402
161347
161310
161347
161382
161447
161398
161394
161452
161438
161427
161431
161366
161406
161425
161427
161468
161423
161464
161472
161466
161399
161327
161316
161415
161445
161477
161476
161524
161450
161453
161458
161423
161444
161504
161520
161460
161407
161440
161436
161485
161469
161448
161485
161504
161525
161552
161517
161551
161629
161572
161473
161430
161453
161497
161563
161577
161604
161607
161525
161438
161461
161498
161577
161684
161671
161627
161565
161531
161500
161427
161435
161434
161455
161565
161551
161664
161635
161644
161611
161603
161528
161528
161547
161552
161574
161549
161528
161562
161498
161504
161455
161502
161493
161505
161539
161549
161550
161522
161538
161517
161467
161399
161425
161436
161445
161468
161470
161455
161412
161411
161418
161382
161380
161397
161330
161428
161487
161462
161464
161483
161466
161383
161410
161448
161490
161482
161434
161488
161491
161474
161500
161472
161494
161564
161571
161594
161554
161597
161614
161600
161492
161357
161291
161343
161374
161354
161166
161085
161022
161077
161043
161021
161018
161039
161089
161145
161163
161182
161203
161184
161147
161159
161266
161451
161491
161550
161508
161451
161424
161389
161377
161315
161369
161421
161424
161498
161488
161499
161533
161549
161557
161523
161479
161468
161427
161393
161377
161526
161649
161616
161558
161553
161559
161598
161573
161525
161571
161604
161578
161517
161515
161518
161552
161575
161511
161513
161515
161559
161615
161615
161643
161588
161523
161576
161644
161686
161661
161643
161618
161524
161566
161556
161568
161499
161586
161741
161654
161647
161650
161641
161643
161612
161621
161624
161608
161662
161629
161629
161582
161533
161518
161553
161586
161627
161721
161736
161666
161664
161793
161772
161675
161681
161620
161626
161636
161622
161633
161727
161727
161677
161715
161656
161692
161689
161697
161710
161679
161708
161661
161568
161688
161670
161664
161645
161667
161673
161684
161657
161560
161474
161513
161611
161747
161786
161699
161688
161599
161597
161602
161603
161569
161441
161433
161495
161555
161761
161794
161711
161664
161623
161568
161504
161532
161556
161537
161547
161539
161544
161570
161604
161569
161519
161528
161560
161640
161625
161528
161578
161637
161633
161593
161547
161584
161531
161528
161517
161456
161499
161529
161545
161510
161505
161543
161623
161607
161615
161566
161638
161671
161629
161611
161535
161500
161446
161493
161565
161602
161670
161697
161621
161575
161567
161618
161637
161620
161652
161616
161606
161614
161647
161603
161542
161571
161594
161580
161552
161522
161601
161588
161540
161551
161578
161598
161624
161691
161662
161579
161593
161581
161591
161528
161423
161495
161548
161532
161558
161563
161539
161602
161639
161609
161603
161578
161507
161511
161522
161466
161549
161533
161532
161531
161491
161537
161495
161490
161537
161517
161566
161559
161557
161530
161433
161482
161516
161573
161529
161468
161418
161422
161539
161614
161533
161506
161504
161471
161487
161478
161508
161545
161567
161508
161399
161444
161519
161573
161533
161452
161460
161487
161544
161560
161512
161465
161454
161489
161463
161454
161543
161545
161500
161480
161422
161368
161373
161443
161459
161502
161488
161525
161492
161505
161420
161434
161464
161457
161524
161558
161612
161624
161615
161571
161495
161474
161481
161462
161414
161500
161618
161607
161616
161584
161518
161502
161499
161526
161552
161528
161580
161583
161562
161472
161419
161525
161537
161611
161726
161620
161630
161633
161581
161594
161622
161665
161628
161633
161627
161598
161654
161597
161569
161629
161589
161620
161623
161674
161750
161714
161669
161621
161652
161645
161605
161627
161642
161638
161621
161626
161695
161723
161699
161704
161624
161605
161629
161687
161662
161641
161654
161657
161588
161620
161705
161768
161735
161735
161734
161714
161717
161797
161788
161718
161624
161687
161750
161672
161736
161701
161699
161691
161739
161723
161644
161613
161631
161682
161683
161634
161657
161674
161633
161647
161637
161639
161589
161598
161685
161602
161702
161724
161692
161684
161649
161624
161618
161685
161672
161676
161712
161708
161626
161588
161578
161612
161613
161677
161721
161619
161652
161667
161663
161701
161675
161647
161648
161673
161702
161688
161722
161727
161721
161765
161801
161921
161965
161904
161919
161831
161817
161756
161739
161671
161545
161460
161325
161213
161286
161360
161361
161391
161409
161398
161334
161309
161373
161432
161481
161444
161461
161577
161641
161618
161634
161682
161673
161645
161632
161678
161734
161840
161871
161789
161681
161652
161611
161648
161685
161718
161764
161816
161825
161706
161680
161750
161773
161787
161764
161765
161775
161794
161788
161746
161705
161733
161756
161716
161727
161730
161792
161764
161739
161787
161738
161812
161853
161779
161775
161753
161769
161795
161832
161792
161737
161804
161859
161809
161738
161720
161774
161792
161823
161816
161739
161681
161731
161728
161706
161661
161687
161753
161786
161813
161770
161711
161693
161668
161712
161743
161777
161772
161855
161838
161734
161661
161702
161707
161701
161729
161783
161839
161834
161847
161830
161793
161739
161714
161714
161685
161698
161711
161741
161832
161639
161694
161723
161742
161756
161719
161757
161854
161884
161800
161722
161765
161760
161740
161669
161620
161657
161672
161678
161789
161724
161729
161739
161652
161605
161581
161675
161760
161822
161851
161756
161685
161704
161689
161704
161677
161692
161685
161706
161693
161655
161669
161666
161688
161738
161699
161654
161743
161711
161693
161633
161650
161616
161623
161715
161751
161765
161755
161706
161723
161626
161693
161667
161644
161674
161654
161729
161748
161742
161763
161737
161751
161750
161786
161831
161773
161773
161806
161801
161833
161736
161711
161755
161749
161704
161642
161777
161878
161938
161938
161816
161808
161826
161818
161839
161832
161897
161944
161920
161873
161781
161787
161772
161729
161739
161769
161845
161929
161927
161863
161806
161817
161834
161853
161836
161769
161770
161848
161877
161880
161822
161832
161884
161854
161841
161854
161862
161816
161795
161747
161645
161631
161705
161765
161832
161917
161942
161876
161809
161804
161742
161764
161742
161711
161686
161751
161873
161861
161772
161711
161603
161614
161647
161697
161708
161700
161786
161851
161889
161871
161750
161745
161671
161670
161665
161677
161704
161743
161765
161744
161619
161611
161633
161655
161682
161651
161705
161757
161703
161666
161604
161623
161569
161503
161484
161517
161607
161748
161845
161783
161717
161679
161618
161607
161579
161529
161608
161649
161685
161650
161653
161640
161635
161659
161654
161623
161618
161607
161593
161577
161572
161641
161695
161645
161653
161660
161695
161727
161622
161568
161513
161664
161659
161674
161638
161625
161673
161705
161733
161756
161717
161714
161672
161661
161666
161597
161623
161633
161656
161685
161685
161720
161695
161669
161735
161748
161724
161744
161699
161669
161682
161693
161632
161674
161693
161680
161670
161671
161628
161668
161677
161687
161725
161773
161717
161663
161689
161684
161647
161667
161677
161676
161689
161714
161684
161612
161723
161788
161818
161760
161734
161700
161636
161620
161656
161634
161663
161634
161565
161574
161635
161706
161749
161841
161790
161661
161665
161688
161790
161767
161666
161643
161590
161530
161582
161605
161635
161681
161753
161741
161691
161656
161621
161556
161510
161485
161549
161557
161546
161502
161456
161522
161692
161686
161647
161633
161613
161666
161695
161727
161613
161585
161571
161528
161527
161496
161516
161526
161545
161588
161476
161508
161602
161639
161598

[HeartVoice API 返回]
# HeartVoice 专业 API 返回的聚合指标（不返回原始波形分析数据）
# 与下方 [算法提取后的结构化特征] 对照可定位本地算法差异
平均心率:72
最低心率:71
最高心率:101
诊断:SN
QRS宽度:96
P波宽度:98
PR间期:152
QT间期:345
QTc:378
房性早搏:0
室性早搏:0
信号质量:0.92
导联反接:true
是否异常:false

[算法提取后的结构化特征]
# 由 EcgFeatureExtractor.extract() + toPromptText() 在手机端重建
# 与手表端发给 DeepSeek 的提示词文本一致（DS 实际收到的数据）
# 注意: 用户 profile（年龄性别）未存入测量记录，手机端重建时为'未知'
#       助手如需年龄性别做医学判断，需用户单独提供

[用户属性]

[全局指标]
采样率:500Hz 时长:30.7s 总点数:15330
R波检测:25个 平均心率:0bpm 范围:0-0bpm
R波位置(样本索引):345,903,2533,3272,3507,3629,5026,5255,6040,6458,6886,7280,7617,8041,8695,8901,10122,11009,11761,12485,13440,14558,14868,15092,15305
RR间期序列(ms，[*]为偏离均值>20%的异常间期，多为早搏/误检):1116 [1478*] [470*] [458*] [1570*] [836*] [856*] [788*] [674*] [848*] 1308 [412*] [2442*] [1774*] [1504*] [1448*] [1910*] [2236*] [620*] [448*] [426*]
RR差值序列(ms):362,-1008,-12,1112,-734,20,-68,-114,174,460,-896,2030,-668,-270,-56,462,326,-1616,-172,-22
SDNN:0.0ms RMSSD:0.0ms pNN50:0.0%
QRS宽度(本地估测,ms):62±12
PR间期(本地估测,ms):175±58
QT间期(本地估测,ms):393 QTc(Bazett):0ms QTc(Fridericia):0ms
R波平均振幅:0.31mV
信号质量:0.85 良好

[节律判别特征]
RR变异系数:0.540(高度不规律)
Poincaré散点形态:扇形(高度不规律，疑似房颤)
短-长RR配对数(早搏代偿):2个

[逐秒分段]
时段(s)  R波  振幅范围(mV)  峰峰值(mV)  最大斜率(mV/s)  RMS(mV)
0.0-1.0  1  -0.75~0.58  1.33  92.50  0.32
1.0-2.0  1  -0.58~0.32  0.90  254.50  0.13
2.0-3.0  0  -0.48~0.36  0.84  120.50  0.11  ← 本秒无R波(心率<60或代偿间隙)
3.0-4.0  0  -0.41~0.32  0.72  105.00  0.12  ← 本秒无R波(心率<60或代偿间隙)
4.0-5.0  0  -0.83~0.95  1.78  81.50  0.51  ← 本秒无R波(心率<60或代偿间隙)
5.0-6.0  1  -0.60~0.61  1.22  103.00  0.22
6.0-7.0  1  -0.57~0.51  1.09  114.00  0.25
7.0-8.0  2  -1.52~1.65  3.17  77.00  0.99  ← 短RR+代偿间隙(早搏可能)
8.0-9.0  0  -0.44~0.50  0.94  105.00  0.13  ← 代偿间隙(配合前秒短RR)
9.0-10.0  0  -0.41~0.49  0.90  85.50  0.21  ← 本秒无R波(心率<60或代偿间隙)
10.0-11.0  2  -0.78~0.55  1.33  91.50  0.37  ← 短RR+代偿间隙(早搏可能)
11.0-12.0  0  -0.35~0.31  0.66  89.00  0.15  ← 代偿间隙(配合前秒短RR)
12.0-13.0  2  -0.50~0.46  0.96  91.00  0.16
13.0-14.0  1  -0.45~0.36  0.81  96.00  0.13
14.0-15.0  1  -0.49~0.47  0.96  75.50  0.19
15.0-16.0  1  -0.46~0.27  0.73  77.50  0.14
16.0-17.0  1  -0.33~0.60  0.93  94.50  0.14
17.0-18.0  2  -0.66~0.47  1.13  107.50  0.24  ← 短RR+代偿间隙(早搏可能)
18.0-19.0  0  -0.57~1.01  1.58  79.00  0.45  ← 代偿间隙(配合前秒短RR)
19.0-20.0  0  -1.96~1.68  3.64  81.50  1.13  ← 本秒无R波(心率<60或代偿间隙)
20.0-21.0  1  -0.46~0.65  1.11  80.50  0.24
21.0-22.0  0  -0.77~0.70  1.47  93.50  0.34  ← 本秒无R波(心率<60或代偿间隙)
22.0-23.0  1  -0.50~0.57  1.07  67.50  0.26
23.0-24.0  1  -0.79~0.65  1.44  84.50  0.26
24.0-25.0  1  -0.72~0.59  1.31  72.00  0.36
25.0-26.0  0  -0.84~0.73  1.57  94.50  0.31  ← 本秒无R波(心率<60或代偿间隙)
26.0-27.0  1  -0.74~0.72  1.46  86.00  0.35
27.0-28.0  0  -0.65~0.57  1.22  90.00  0.34  ← 本秒无R波(心率<60或代偿间隙)
28.0-29.0  0  -0.47~0.30  0.77  94.00  0.12  ← 本秒无R波(心率<60或代偿间隙)
29.0-30.0  2  -0.41~0.34  0.75  103.00  0.12
逐秒RMS:0.319,0.131,0.109,0.122,0.515,0.216,0.251,0.992,0.130,0.212,0.371,0.148,0.157,0.126,0.192,0.137,0.145,0.239,0.447,1.133,0.236,0.342,0.262,0.255,0.356,0.305,0.349,0.336,0.116,0.116

[AI 解读]
# DeepSeek 返回的原始 JSON（未清洗，可能含 markdown 代码块包裹）
本次测量未使用 AI 分析（分析方法非 ds_*）
