========== ECG 算法诊断包 ==========
测量时间: 2026-07-16 19:39:38
测量时间戳:1784201978305
采样率:500 Hz
数据点数:15320
时长:30.6 秒
分析方法:heartvoice

[原始 ECG 数据]
# 单位: mV×1000 整数（如 500 = 0.5mV，-1000 = -1.0mV）
# 采样率: 500 Hz，连续采样，无降采样无压缩
# 用途: 助手据此复现本地算法行为（基线漂移/噪声段/R波检测）
# 格式: 每行一个数值，行号=采样点索引（第1行=索引0，即 t=0.000s）
178683
178713
178608
178564
178644
178671
178719
178578
178548
178628
178562
178567
178543
178502
178625
178507
178517
178668
178761
178723
178693
178670
178651
178656
178717
178704
178705
178755
178656
178621
178595
178726
178769
178717
178708
178652
178628
178552
178555
178588
178556
178631
178646
178664
178757
178759
178631
178555
178657
178675
178566
178569
178766
178564
178525
178464
178511
178512
178614
178642
178639
178662
178710
178675
178614
178484
178425
178425
178346
178545
178551
178560
178566
178510
178474
178359
178426
178539
178508
178486
178507
178552
178449
178458
178374
178370
178466
178436
178434
178601
178467
178407
178377
178447
178476
178469
178542
178574
178627
178599
178591
178632
178577
178476
178487
178466
178385
178361
178358
178449
178488
178581
178627
178514
178524
178506
178545
178530
178458
178526
178456
178443
178455
178416
178400
178462
178543
178404
178498
178592
178577
178411
178469
178423
178467
178307
178260
178273
178167
178220
178215
178164
178096
178090
178139
178102
178157
178094
178174
178304
178413
178555
178601
178519
178546
178527
178494
178459
178444
178388
178376
178421
178527
178504
178498
178461
178270
178182
178263
178239
178143
178254
178259
178207
178157
178135
178228
178238
178234
178164
178127
178202
178135
178105
178195
178182
178176
178194
178176
178191
178129
178174
178277
178317
178300
178173
178195
178241
178227
178093
178058
178049
178091
178159
178176
178088
178097
178268
178271
178222
178246
178271
178276
178162
178124
178077
178127
178115
178131
178098
178138
178108
178195
178127
178028
178139
178160
178203
178075
178163
178120
178080
178062
178176
178210
178014
177968
177922
177950
178094
178036
178049
177972
178013
178095
178006
177944
177993
177991
178001
177972
178090
178099
178108
178003
177889
177888
177887
177957
177942
177938
177987
177982
177959
177912
177856
177865
177896
177906
177833
177756
177793
177951
178059
178026
177963
177873
177774
177762
177839
177695
177722
177760
177807
177892
177916
177885
177770
177848
177902
177810
177970
177961
177941
177858
177864
177813
177895
177943
177832
177960
177861
177818
177906
177886
177797
177798
177960
178051
177956
177785
177805
177793
177715
177693
177706
177719
177785
177777
177773
177744
177743
177857
177828
177677
177711
177838
177847
177794
177762
177716
177683
177834
177821
177837
177842
177937
177809
177815
177856
177870
177893
177892
177866
177771
177773
177798
177884
177851
177716
177721
177805
177823
177848
177930
177803
177841
177850
177842
177803
177717
177829
177850
177780
177795
177704
177783
177748
177847
177845
177760
177811
177901
177851
177771
177722
177737
177754
177835
177821
177867
177794
177735
177753
177814
177844
177896
177856
177844
177780
177772
177984
177958
177970
177891
177839
177873
177858
177915
177913
177859
177804
177788
177899
177929
177934
178024
177937
177923
177902
177897
177923
177922
177813
177886
177940
177943
177880
177853
177868
177725
177826
177752
177750
177792
177806
177790
177908
177967
177938
177850
177747
177787
177799
177732
177691
177748
177695
177740
177819
177793
177816
177975
177948
177766
177712
177802
177865
177800
177847
177868
177910
177890
177942
177934
177988
178050
178045
177992
177990
177990
178058
178131
178052
178017
177934
177922
177886
177915
177898
177906
177953
177959
177967
177926
177838
177822
177829
177807
177885
177736
177856
177855
177812
177941
177952
177841
177793
177823
177892
177822
177888
177901
177878
177857
177897
177942
177952
177966
177919
177883
177995
177978
177949
177929
177835
177853
177923
178000
178053
178132
178133
178026
178037
178073
177997
177976
177943
177914
177950
178078
177911
177947
177954
177975
178057
178036
177994
178009
178023
177941
177996
177997
177988
177980
177869
177892
177956
177989
178044
177871
177847
177882
177934
178014
177944
177905
177927
177900
177762
177757
177899
177876
177892
177863
177824
177943
177954
177916
177897
177903
177919
177902
177859
177809
177679
177707
177724
177684
177708
177780
177969
177806
177784
177736
177727
177646
177515
177680
177842
177725
177780
177866
177858
177871
177770
177667
177696
177728
177709
177690
177634
177704
177809
177798
177725
177794
177910
177819
177721
177644
177676
177669
177691
177713
177608
177617
177747
177739
177654
177583
177641
177607
177628
177592
177622
177640
177608
177539
177541
177557
177578
177452
177399
177355
177414
177383
177339
177293
177369
177334
177416
177484
177592
177594
177540
177651
177780
177764
177820
177865
177953
177995
177909
178005
178039
177946
177891
177820
177748
177789
177870
177787
177729
177620
177584
177642
177629
177559
177457
177424
177587
177625
177648
177638
177530
177517
177489
177547
177653
177589
177535
177487
177537
177526
177495
177561
177599
177668
177679
177726
177670
177586
177574
177566
177565
177588
177552
177642
177607
177562
177622
177588
177575
177681
177635
177633
177663
177657
177728
177714
177646
177647
177626
177629
177612
177580
177569
177601
177744
177680
177558
177601
177526
177540
177560
177608
177653
177609
177689
177565
177605
177657
177588
177677
177672
177744
177639
177611
177656
177723
177795
177678
177656
177699
177584
177536
177726
177770
177767
177707
177728
177779
177705
177789
177795
177820
177779
177620
177556
177564
177639
177620
177666
177658
177560
177628
177683
177568
177500
177408
177355
177420
177581
177572
177571
177494
177555
177478
177489
177458
177434
177439
177430
177467
177489
177508
177509
177423
177368
177338
177542
177713
177579
177465
177396
177468
177506
177548
177489
177471
177465
177459
177390
177407
177437
177432
177461
177604
177544
177494
177573
177609
177510
177424
177406
177440
177462
177446
177321
177270
177534
177574
177471
177435
177414
177448
177567
177513
177371
177348
177502
177515
177543
177531
177464
177550
177564
177448
177514
177450
177555
177548
177461
177455
177407
177558
177562
177627
177625
177503
177475
177566
177582
177521
177490
177582
177597
177527
177542
177399
177414
177590
177564
177569
177550
177647
177576
177626
177629
177647
177646
177742
177771
177719
177674
177647
177575
177703
177762
177743
177807
177852
177884
177789
177635
177644
177814
177700
177676
177733
177834
177880
177878
177755
177668
177735
177767
177701
177716
177722
177744
177752
177734
177729
177699
177818
177827
177665
177658
177590
177717
177677
177705
177750
177747
177682
177734
177799
177752
177744
177795
177835
177853
177815
177689
177656
177841
177808
177752
177714
177770
177778
177699
177688
177653
177674
177635
177814
177902
177867
177894
177950
177934
177865
177836
177867
177853
177884
177949
178039
178011
177934
177993
177911
177753
177853
177944
177954
177918
177816
177928
178021
177947
177932
178026
178046
177977
177927
177886
177931
177936
177950
178038
178049
177998
178176
178110
178050
178049
177959
177987
178061
178088
178123
178180
178234
178201
178113
178075
178067
178031
178134
178146
178167
178179
178161
178045
178076
178162
178145
178171
178181
178175
178082
178026
178137
178224
178103
178098
178216
178373
178320
178281
178276
178253
178352
178315
178299
178273
178308
178380
178350
178363
178417
178323
178333
178418
178351
178223
178263
178356
178390
178354
178269
178209
178186
178240
178259
178367
178240
178205
178319
178306
178244
178224
178340
178347
178295
178338
178323
178298
178322
178379
178349
178328
178355
178326
178231
178269
178321
178360
178422
178390
178393
178286
178295
178316
178337
178384
178389
178413
178407
178372
178340
178297
178420
178394
178426
178444
178316
178359
178434
178375
178460
178439
178457
178570
178533
178532
178553
178536
178562
178610
178610
178492
178570
178519
178587
178770
178725
178710
178684
178677
178610
178646
178733
178735
178729
178657
178577
178670
178719
178703
178653
178686
178668
178543
178654
178730
178630
178729
178811
178733
178706
178752
178720
178712
178773
178728
178651
178722
178715
178694
178593
178519
178629
178660
178590
178510
178536
178563
178672
178788
178841
178896
178918
179004
179092
179093
179113
179170
179219
179248
179272
179109
179064
179173
179281
179196
179079
179114
179096
179073
179009
178994
179021
178948
178919
178954
178918
178994
179080
178977
178980
179019
179057
179062
179098
179097
179086
179101
179085
179096
179167
179140
178975
178766
178887
179207
179200
179158
179180
179079
179108
179058
179051
179140
179039
179106
179046
179024
179090
179227
179316
179200
179124
179170
179208
179210
179185
179171
179256
179159
179116
179190
179294
179361
179386
179409
179384
179377
179359
179280
179341
179254
179208
179159
179255
179330
179328
179196
179306
179333
179221
179148
179225
179245
179186
179189
179186
179060
179011
179105
179215
179234
179202
179110
179013
179077
179052
178946
179015
179060
179055
179000
178962
178995
179035
179059
178949
178903
178911
179010
178995
178890
178998
178994
178919
178971
178970
178926
178941
178894
178940
178948
179007
178989
179062
179103
179023
179069
179129
179094
179137
179115
179151
179101
179112
179029
178994
179018
178989
178979
178979
179019
179161
179071
179026
178968
179186
179195
179230
179275
179275
179154
179287
179317
179188
179120
179059
179200
179285
179190
179198
179167
179288
179359
179172
179180
179066
179150
179132
179171
179267
179141
179148
179066
179088
179144
179190
179172
179054
179023
179068
179083
179081
179105
178968
179152
179157
179134
179113
179178
179118
179077
179151
179174
179144
179169
179247
179198
179096
179138
179093
178995
179059
179247
179233
179141
179099
179118
179125
179192
179181
178987
179001
179137
179079
179129
179098
179080
179059
179089
179150
179169
179172
179150
179232
179150
179096
179131
179254
179305
179273
179177
179073
179124
179191
179290
179314
179421
179372
179275
179205
179155
179145
179231
179303
179231
179107
179209
179382
179314
179382
179338
179240
179228
179214
179160
179164
179209
179299
179290
179246
179158
179199
179147
179116
179350
179195
179202
179183
179142
179217
179200
179263
179276
179267
179262
179207
179208
179098
179131
179152
179212
179220
179268
179263
179305
179305
179219
179166
179257
179351
179389
179365
179324
179115
179168
179258
179406
179425
179423
179360
179282
179237
179265
179291
179369
179273
179318
179392
179434
179366
179175
179289
179409
179345
179372
179305
179306
179466
179367
179428
179490
179515
179501
179467
179490
179418
179425
179484
179477
179433
179380
179462
179484
179481
179432
179410
179467
179486
179469
179567
179665
179674
179562
179512
179548
179574
179582
179567
179583
179677
179538
179624
179630
179529
179711
179783
179678
179694
179626
179553
179614
179646
179730
179794
179839
179736
179734
179795
179771
179796
179733
179834
179890
179829
179842
179832
179844
179852
179874
179808
179855
179921
179878
179881
179943
179891
179958
180019
179965
179976
179967
179956
179972
179955
179891
179908
179979
180051
180075
179987
179978
179983
179985
179914
179929
179948
180014
180010
179931
179872
179864
179955
180028
179926
179898
179799
179884
179961
179959
179934
179891
179939
180030
180043
180070
180037
180100
180117
180025
180097
180095
180103
180132
180067
180106
180166
180101
180085
180260
180219
180260
180320
180250
180132
180141
180153
180158
180128
180099
180026
180069
180155
180184
180107
180156
180172
180242
180082
180131
180181
180185
180157
180192
180242
180309
180189
180174
180082
180050
180073
180081
180147
180112
180119
180144
179960
179937
179992
180079
180158
180148
180224
180282
180376
180318
180296
180483
180597
180612
180577
180561
180630
180618
180538
180468
180464
180450
180515
180578
180373
180220
180233
180349
180466
180416
180412
180360
180364
180292
180339
180350
180367
180272
180183
180194
180414
180559
180517
180567
180592
180404
180454
180486
180475
180347
180365
180413
180372
180456
180551
180506
180462
180410
180408
180422
180325
180454
180598
180562
180520
180472
180494
180503
180378
180491
180503
180466
180496
180533
180491
180533
180427
180310
180436
180461
180485
180520
180541
180544
180477
180455
180543
180578
180526
180464
180519
180504
180449
180437
180481
180556
180515
180454
180426
180566
180623
180692
180667
180546
180496
180461
180478
180581
180466
180415
180383
180473
180519
180550
180530
180457
180523
180483
180326
180387
180350
180493
180463
180484
180500
180360
180304
180358
180372
180376
180248
180147
180179
180280
180340
180424
180428
180493
180564
180483
180407
180344
180396
180406
180477
180486
180425
180237
180187
180287
180293
180403
180375
180357
180387
180304
180359
180318
180319
180395
180324
180303
180341
180382
180266
180236
180366
180279
180225
180227
180320
180387
180305
180299
180392
180293
180319
180272
180242
180189
180207
180257
180293
180387
180353
180280
180329
180346
180354
180279
180262
180391
180369
180350
180384
180441
180395
180292
180336
180423
180417
180380
180387
180414
180494
180494
180587
180638
180531
180554
180525
180502
180480
180587
180605
180546
180628
180646
180666
180631
180563
180578
180584
180721
180629
180482
180577
180581
180616
180623
180579
180615
180619
180615
180549
180587
180622
180549
180613
180682
180585
180562
180516
180531
180558
180593
180623
180578
180548
180540
180508
180593
180572
180493
180500
180543
180465
180510
180475
180576
180597
180575
180531
180484
180441
180329
180381
180311
180350
180343
180347
180386
180424
180406
180370
180260
180364
180420
180302
180296
180318
180314
180340
180292
180290
180176
180326
180308
180212
180193
180244
180348
180274
180229
180262
180274
180232
180278
180312
180353
180251
180355
180391
180407
180526
180448
180288
180204
180204
180290
180342
180302
180240
180235
180302
180346
180361
180414
180360
180252
180358
180468
180453
180253
180208
180190
180352
180430
180305
180317
180242
180374
180486
180459
180526
180462
180305
180324
180394
180387
180349
180323
180426
180399
180400
180372
180410
180457
180355
180380
180247
180293
180384
180339
180361
180365
180457
180435
180465
180435
180366
180445
180468
180391
180372
180344
180439
180463
180594
180536
180483
180370
180242
180409
180440
180401
180566
180609
180451
180414
180458
180491
180408
180433
180381
180417
180489
180561
180535
180496
180489
180409
180392
180424
180516
180334
180403
180494
180480
180430
180446
180383
180466
180458
180407
180355
180451
180479
180440
180401
180387
180342
180505
180544
180542
180360
180367
180322
180345
180405
180443
180503
180473
180367
180351
180442
180502
180465
180363
180350
180431
180387
180486
180608
180574
180463
180526
180547
180569
180723
180630
180458
180506
180633
180705
180622
180652
180629
180542
180551
180538
180607
180638
180605
180448
180385
180345
180466
180558
180556
180524
180479
180590
180577
180510
180436
180569
180590
180575
180573
180499
180612
180716
180688
180666
180544
180503
180530
180500
180541
180417
180421
180416
180429
180466
180341
180412
180466
180439
180565
180687
180694
180739
180791
180882
180899
180968
181030
180955
180988
180943
180980
181146
181153
180992
180936
180891
180817
180875
180980
180954
180894
180835
180836
180816
180797
180914
180941
180920
180969
180955
180924
180903
180820
180805
180908
180977
180915
180930
180815
180834
180878
181016
180964
180871
180749
180778
180821
180839
180886
180880
180856
180837
180811
180859
180873
180859
180805
180825
180838
180831
180859
180915
180904
180940
180918
180958
180981
180987
180979
180879
180908
180965
180897
180864
180841
180943
181001
181043
181064
180985
180965
180976
180962
181044
180986
180965
181025
181007
181069
180924
181058
181155
181043
181052
181041
181022
180891
180905
181010
180953
181002
180979
180898
180868
180888
180961
181002
181039
181063
181030
180996
181089
181093
181094
180955
180964
181007
180977
180996
180976
181094
181040
181138
180989
180881
180949
181040
181156
181141
180977
180927
180927
180961
180946
180853
181031
180983
180983
181026
180977
180957
180949
181004
181025
180992
181010
181050
181133
181066
180917
180936
181021
181085
181060
180985
180908
181080
181126
181014
180947
181000
180979
180909
180952
180934
181011
181084
181068
181060
180986
180930
180917
180911
180929
180925
180870
180943
180958
180880
180772
180799
180831
180851
180959
180810
180816
180909
180881
180954
180999
181050
181056
180978
181033
180960
180936
180918
180746
180771
180827
180977
181011
180927
180898
180835
180849
180886
180854
180789
180803
180804
180854
180869
180830
180820
180866
180965
180986
180953
180808
180869
180860
180845
180818
180738
180875
180867
180878
180874
180702
180807
180820
180756
180773
180848
180911
180926
180955
180900
180884
180928
180924
180834
180821
180767
180733
180866
181046
180929
180893
180911
180911
180852
180802
180829
180965
180959
180850
180950
180853
180830
180852
180882
180893
180890
181027
180944
180659
180601
180577
180759
180790
180753
180871
180744
180748
180775
180767
180750
180706
180726
180907
180931
180931
180953
180952
180966
180947
180960
180917
180961
181032
180909
180924
180916
180983
181054
180968
180993
180963
180954
180950
181055
181075
181030
181068
181066
181013
180825
180799
180941
180891
180870
180887
180815
180886
180905
180918
180996
180938
180961
180857
180942
180992
180883
180924
180925
181037
181065
180960
180972
180960
180948
180986
180967
180947
181040
181015
181059
181057
181056
181070
181092
181115
181062
181033
180959
181140
181169
180943
180885
180958
181052
181042
180967
181022
181036
180922
180752
180878
181170
181029
180875
180931
180912
180963
181048
181103
181019
180932
180994
180965
181002
181066
181095
181069
181069
181064
181084
180950
180925
181076
181078
181142
181125
181110
181068
181187
181240
181111
181148
181141
181130
181138
181089
181166
181191
181225
181327
181132
181122
181056
180922
181027
180974
181053
181076
181113
181108
181045
181057
181087
181120
181072
181006
181073
181195
181117
181081
181051
181038
181072
181061
181055
181035
181176
181216
181084
181023
181065
181104
181134
181219
181196
181064
181130
181190
181118
181049
181022
181033
181074
181114
181050
181153
181206
181192
181058
181135
181124
181259
181348
181310
181198
181008
181069
181092
181159
181230
181208
181283
181390
181375
181228
181261
181322
181144
181085
181115
181063
181158
181174
181161
181218
181240
181260
181228
181348
181300
181258
181217
181096
181120
181133
181224
181185
181216
181258
181219
181131
181083
181026
181151
181152
181096
181162
181197
181117
181075
181161
181129
181068
181072
181027
180994
181035
181009
181077
181135
181224
181360
181397
181364
181284
181387
181472
181619
181672
181718
181604
181537
181594
181570
181587
181596
181612
181480
181460
181481
181280
181311
181331
181253
181299
181300
181452
181465
181428
181318
181302
181356
181528
181494
181432
181341
181382
181403
181310
181442
181488
181487
181432
181446
181398
181344
181445
181443
181307
181390
181374
181442
181490
181468
181486
181474
181443
181362
181404
181553
181563
181535
181511
181520
181459
181421
181519
181579
181555
181545
181447
181501
181541
181545
181580
181621
181670
181715
181560
181483
181534
181520
181541
181478
181488
181453
181559
181462
181451
181600
181510
181541
181529
181461
181631
181656
181626
181592
181494
181519
181600
181544
181509
181505
181473
181397
181386
181526
181537
181426
181378
181437
181464
181488
181390
181357
181433
181406
181356
181385
181344
181354
181379
181367
181395
181383
181407
181470
181414
181370
181346
181307
181456
181443
181370
181457
181599
181532
181420
181464
181425
181463
181423
181419
181373
181440
181370
181349
181399
181489
181563
181613
181510
181454
181412
181380
181445
181438
181462
181420
181418
181460
181507
181464
181372
181320
181385
181365
181405
181413
181418
181458
181503
181521
181414
181361
181473
181528
181466
181432
181388
181392
181488
181412
181464
181414
181365
181456
181397
181359
181248
181394
181426
181419
181414
181419
181451
181547
181469
181410
181503
181483
181391
181423
181556
181507
181498
181477
181486
181440
181465
181563
181468
181435
181458
181433
181498
181481
181539
181612
181437
181523
181574
181550
181619
181643
181672
181616
181648
181680
181505
181572
181599
181558
181548
181480
181522
181641
181614
181570
181508
181486
181466
181541
181582
181410
181519
181617
181556
181555
181536
181522
181545
181582
181488
181479
181599
181619
181559
181389
181407
181501
181504
181546
181533
181511
181471
181487
181517
181493
181473
181395
181412
181384
181360
181302
181390
181377
181380
181446
181466
181523
181552
181496
181376
181257
181362
181438
181411
181419
181400
181409
181377
181299
181327
181278
181325
181252
181311
181368
181393
181401
181496
181413
181313
181335
181403
181376
181358
181332
181271
181344
181404
181446
181340
181353
181377
181392
181381
181420
181394
181449
181360
181344
181383
181346
181294
181419
181469
181394
181449
181563
181511
181474
181409
181392
181432
181489
181476
181473
181458
181490
181428
181443
181479
181462
181532
181561
181559
181606
181607
181521
181471
181509
181419
181379
181342
181532
181657
181555
181497
181513
181524
181470
181475
181488
181489
181475
181475
181359
181303
181520
181581
181569
181599
181586
181684
181568
181569
181541
181412
181511
181502
181394
181343
181331
181417
181534
181587
181614
181498
181505
181489
181557
181459
181505
181445
181490
181468
181433
181413
181438
181519
181557
181562
181663
181669
181613
181685
181592
181546
181575
181525
181580
181599
181483
181473
181526
181589
181643
181651
181734
181658
181653
181607
181593
181713
181725
181661
181606
181608
181667
181697
181750
181767
181700
181683
181756
181880
181827
181790
181750
181743
181727
181686
181711
181694
181613
181594
181694
181691
181685
181728
181728
181623
181519
181586
181525
181509
181603
181670
181701
181631
181551
181605
181612
181650
181591
181664
181668
181640
181625
181593
181721
181771
181472
181442
181493
181500
181546
181592
181543
181712
181809
181705
181600
181536
181542
181487
181507
181517
181606
181524
181442
181632
181612
181500
181502
181481
181498
181520
181567
181654
181647
181635
181611
181665
181609
181457
181580
181619
181649
181552
181427
181427
181462
181565
181607
181603
181596
181515
181578
181607
181684
181677
181598
181710
181887
182037
182082
182044
182037
181989
182022
182040
182064
182034
182007
181985
182022
181995
181897
181861
181849
181861
181812
181872
181934
181880
181937
181971
181976
181860
181908
181942
181975
181940
182020
182057
182063
181948
181971
181915
181882
181896
181898
181835
181890
181961
181997
181949
182002
182067
181973
181891
181905
181971
181941
181833
181852
181891
182000
182030
181967
182042
182003
181985
181981
182041
182013
182001
181990
182001
181970
181922
181891
181949
182108
182142
182146
182052
182118
182204
182164
182054
181990
182065
182106
182110
182113
181990
182016
182056
182117
182127
182003
182056
181989
181985
181984
181986
182035
181957
181939
181953
181962
182021
181979
182059
182008
181929
181964
182121
182159
181948
181823
181932
182029
182071
181997
181884
181900
181970
182050
181963
181871
182000
182017
182098
182002
181802
181916
181945
181935
181894
181933
182078
182085
182076
182151
181965
181889
181912
181962
181998
181943
181921
181941
182063
182097
182031
182043
181940
181957
182038
181871
181882
181834
181899
181891
181913
181978
181937
181883
181905
181910
181909
181891
181803
181812
181903
181977
181956
181898
181847
181869
181941
181904
181837
181880
181888
181800
181778
181866
181909
181975
182115
182107
182001
181968
181929
182006
182017
181998
181980
181944
181976
182048
182159
182240
182073
182201
182194
182076
181986
181954
181992
182102
182086
182127
182127
182265
182236
182134
182118
182069
182114
182099
181995
181926
181882
181909
181864
181818
181706
181577
181619
181627
181526
181499
181473
181380
181322
181283
181306
181229
181158
181165
181205
181116
181121
181101
181025
181074
181128
181143
181087
180960
181006
181134
181063
181106
181219
181185
181149
181084
181006
181078
181017
181095
181066
181097
181062
181038
181059
181073
181124
181130
181183
181139
181007
181042
181098
181209
181170
181116
181190
181170
181087
181031
181041
181097
181165
181059
181046
181097
181192
181130
181078
180977
181077
181209
181199
181237
181221
180985
180921
180936
181065
181166
181157
181139
181097
181085
181097
181067
181088
181035
181028
181008
181034
181200
181152
181182
181170
181103
181050
181018
181022
181046
181026
181042
181138
181184
181091
181013
181020
181122
181220
181233
181154
181177
181197
181231
181172
181026
181116
181059
181074
181067
181045
181178
181201
181106
181092
181161
181286
181249
181200
181126
181046
181098
181065
181098
181109
181097
181079
181029
180994
181054
180968
181030
181155
181163
181130
181043
181039
181048
181022
180891
180930
181164
181093
181100
181130
181042
181072
181055
180945
180873
180886
181082
181095
181135
181095
181036
181026
180949
180976
181018
180965
180987
181042
181029
181040
181105
181037
180966
181038
181092
180994
181039
181059
181136
181184
181114
181119
181229
181223
181278
181203
181182
181211
181126
181053
181077
181114
181022
181006
181030
180906
180897
181039
181085
181044
181021
181013
181046
181047
180967
180903
180967
180875
180913
180975
180990
180986
181059
180962
180932
180969
181047
180986
180912
181005
181028
181016
181038
181106
181103
181032
181026
181026
180986
181060
180990
181039
181018
180957
181058
181018
181048
181078
180982
180892
180901
181003
181030
180911
180935
180877
180878
180904
180864
180904
180927
181056
181051
180947
180952
180887
180885
180926
180899
180856
180774
180855
180786
180843
180832
180829
180923
180943
180943
180888
180776
181048
181046
181030
181179
181298
181321
181297
181319
181327
181270
181240
181217
181177
181116
181107
181169
181201
181128
181016
180961
180983
180957
180876
180794
180840
180957
180964
180937
180897
180905
180905
180817
180875
180892
181059
181088
180963
181013
180985
180808
180845
180932
180919
180803
180735
180994
180972
181059
180968
180858
180909
180930
180883
180903
180924
180919
180845
180882
180837
180887
180931
180895
180887
180888
180990
181048
180991
180935
180931
181008
181113
180943
180708
180674
180695
180866
180922
180973
180926
180844
180866
180792
180755
180889
180851
180898
180836
180798
180753
180709
180779
180866
180830
180868
180846
180856
180805
180766
180785
180633
180676
180724
180728
180790
180886
180835
180738
180721
180726
180734
180834
180897
180880
180808
180712
180685
180738
180897
180801
180710
180734
180654
180700
180748
180772
180714
180664
180687
180775
180784
180825
180775
180719
180713
180731
180709
180775
180713
180713
180703
180754
180868
180810
180726
180637
180815
180821
180771
180837
180683
180745
180795
180788
180796
180732
180711
180831
180909
180924
180757
180667
180597
180625
180704
180668
180705
180675
180630
180743
180668
180581
180624
180675
180652
180622
180519
180557
180621
180525
180476
180609
180726
180716
180745
180701
180700
180732
180679
180696
180634
180703
180685
180677
180664
180621
180692
180762
180779
180777
180708
180651
180609
180618
180737
180700
180706
180676
180726
180796
180628
180836
180823
180799
180713
180655
180679
180657
180717
180734
180599
180640
180774
180667
180700
180714
180702
180748
180724
180713
180643
180671
180757
180788
180873
180763
180728
180786
180638
180752
180672
180740
180764
180721
180710
180678
180788
180834
180836
180808
180793
180894
180797
180766
180697
180571
180642
180703
180709
180753
180688
180662
180640
180696
180820
180734
180714
180682
180631
180669
180716
180635
180530
180625
180679
180655
180745
180790
180747
180699
180659
180660
180726
180674
180714
180747
180766
180676
180734
180773
180668
180707
180740
180648
180614
180722
180822
180678
180673
180782
180746
180732
180684
180784
180816
180780
180797
180752
180717
180704
180710
180759
180849
180862
180789
180714
180814
180868
180788
180937
180876
180788
180770
180748
180800
180755
180816
180757
180815
180714
180692
180750
180728
180735
180799
180719
180663
180648
180610
180634
180679
180641
180674
180704
180725
180734
180779
180661
180617
180627
180624
180688
180600
180691
180647
180609
180721
180708
180733
180712
180537
180627
180700
180742
180710
180578
180642
180608
180642
180654
180610
180667
180783
180828
180810
180743
180825
180758
180746
180789
180795
180714
180688
180586
180563
180593
180661
180708
180704
180665
180614
180646
180647
180654
180605
180645
180687
180721
180767
180700
180643
180748
180755
180701
180754
180626
180579
180648
180659
180701
180767
180753
180689
180672
180637
180490
180673
180687
180740
180754
180549
180496
180559
180462
180547
180477
180490
180458
180347
180445
180499
180564
180510
180466
180411
180345
180487
180547
180527
180534
180451
180448
180378
180326
180458
180526
180520
180570
180677
180656
180508
180460
180516
180516
180475
180438
180400
180391
180471
180461
180462
180455
180385
180404
180493
180515
180602
180547
180422
180329
180362
180357
180375
180449
180437
180477
180515
180588
180521
180421
180369
180364
180353
180516
180547
180526
180540
180521
180487
180466
180410
180475
180520
180483
180511
180519
180503
180503
180456
180430
180434
180520
180422
180342
180374
180326
180262
180256
180257
180234
180213
180282
180296
180355
180356
180294
180383
180392
180419
180488
180581
180740
180723
180620
180587
180570
180663
180733
180783
180774
180646
180672
180561
180415
180365
180448
180523
180515
180439
180367
180350
180371
180370
180346
180371
180425
180400
180383
180494
180544
180388
180358
180415
180468
180462
180461
180440
180431
180397
180391
180358
180387
180473
180472
180495
180468
180528
180548
180557
180559
180560
180614
180600
180510
180509
180523
180633
180704
180499
180387
180252
180262
180367
180444
180431
180373
180374
180427
180397
180437
180464
180494
180499
180478
180431
180365
180433
180426
180270
180279
180227
180170
180245
180383
180352
180368
180370
180329
180383
180456
180411
180339
180354
180321
180310
180265
180295
180312
180247
180271
180194
180168
180127
180174
180197
180148
180226
180259
180181
180184
180127
180115
180057
180053
180078
180059
180077
180141
180126
180059
180108
180172
180130
180096
180072
180007
180062
180054
180120
180127
180042
180013
180026
179999
180055
180082
180070
179982
180052
179976
180063
180029
180009
180054
180012
179943
179984
179951
180065
180074
180058
180040
180026
179923
179885
179924
180068
180132
179982
179913
179869
179921
179935
179939
179930
179846
179861
179830
179796
179737
179710
179951
179944
179852
179924
179930
179898
179953
180006
179885
179821
179840
179797
179732
179844
179891
179924
180029
179946
179905
179960
180028
180047
179915
179940
180005
179983
180024
180055
180106
180010
180052
180149
180167
180122
180060
180081
180019
179979
179923
179962
180171
180224
180162
180171
180099
180095
180073
180071
180000
179909
180075
180184
180149
180028
180016
180028
180001
180037
180039
180050
180121
180113
180073
180045
179970
180054
180037
179993
180041
180023
180071
180075
180045
180036
180020
180049
180026
180001
180052
180027
179946
179946
179958
179902
179871
179893
179894
179921
179876
179910
180046
179998
179920
179937
179787
179806
179910
179908
179776
179704
179837
179885
179852
179804
179675
179817
179822
179910
179876
179814
179915
179988
179912
179734
179831
179884
179889
179818
179829
179768
179820
179850
179844
179690
179748
179852
179837
179889
179752
179685
179751
179863
179830
179909
179908
179897
179817
179762
179810
179806
179862
179770
179843
179821
179705
179782
179855
179852
179826
179753
179772
179798
179823
179892
179788
179755
179848
179822
179747
179678
179747
179752
179709
179695
179626
179627
179726
179772
179751
179739
179860
179768
179651
179638
179645
179789
179758
179750
179730
179697
179702
179702
179843
179724
179708
179740
179586
179494
179596
179490
179708
179692
179630
179714
179645
179579
179535
179501
179586
179566
179619
179506
179456
179577
179569
179613
179567
179530
179459
179398
179503
179635
179564
179558
179438
179467
179427
179415
179365
179387
179543
179498
179477
179447
179267
179295
179324
179271
179262
179199
179290
179351
179240
179341
179306
179310
179216
179155
179131
179071
179069
179194
179209
179197
179080
179067
179049
179082
179120
179047
179025
179003
179004
179039
178981
179003
179037
179092
179006
178912
178924
178964
179029
179005
178993
178971
178970
178894
178895
179006
179125
178946
178954
179113
179048
178928
178838
178957
178925
178856
178907
179011
178983
178919
178866
178959
178932
178891
178842
178857
178978
178995
178917
178880
178725
178733
178766
178705
178766
178838
178852
178910
178871
178925
178949
178862
178737
178775
178903
178874
178775
178858
178871
178765
178797
178812
178649
178672
178596
178610
178756
178565
178494
178416
178399
178515
178516
178570
178578
178525
178487
178479
178597
178667
178721
178792
178860
178982
179091
179056
179144
179089
179063
179040
178964
178977
179061
179017
178970
178989
178912
178880
178742
178634
178617
178633
178757
178845
178834
178698
178686
178709
178671
178702
178594
178529
178601
178707
178731
178706
178733
178840
178805
178776
178651
178619
178583
178658
178733
178664
178661
178708
178751
178869
178733
178699
178742
178712
178583
178586
178638
178735
178807
178784
178653
178692
178593
178492
178433
178619
178807
178747
178613
178627
178671
178741
178687
178718
178761
178788
178722
178712
178682
178791
178665
178599
178719
178710
178771
178727
178679
178793
178752
178777
178706
178734
178765
178679
178690
178725
178809
178728
178715
178784
178674
178636
178725
178702
178695
178672
178689
178680
178659
178647
178593
178635
178627
178686
178904
178828
178799
178677
178675
178755
178775
178793
178780
178755
178854
178771
178668
178620
178728
178773
178694
178672
178681
178720
178823
178858
178986
178909
178765
178783
178778
178791
178841
178847
178812
178800
178793
178756
178749
178818
178895
178976
178885
178867
178805
178739
178767
178869
178903
178835
178762
178804
178712
178635
178756
178811
178778
178751
178743
178704
178686
178807
178854
178778
178752
178704
178747
178774
178703
178773
178745
178717
178716
178685
178705
178690
178715
178682
178673
178745
178805
178843
178794
178809
178742
178773
178736
178752
178572
178649
178606
178534
178554
178610
178645
178609
178662
178697
178721
178676
178689
178773
178796
178592
178694
178694
178684
178603
178675
178778
178642
178748
178777
178700
178787
178754
178613
178627
178653
178662
178570
178590
178601
178536
178508
178582
178697
178701
178591
178551
178550
178614
178594
178647
178543
178394
178459
178590
178600
178674
178503
178474
178489
178496
178527
178573
178622
178560
178518
178455
178468
178486
178383
178341
178454
178494
178459
178411
178407
178411
178338
178429
178350
178309
178346
178441
178509
178408
178326
178245
178228
178245
178296
178318
178299
178274
178316
178250
178207
178266
178220
178286
178299
178306
178304
178273
178373
178407
178302
178301
178173
178268
178357
178296
178290
178325
178412
178381
178358
178372
178329
178227
178312
178332
178364
178330
178346
178494
178487
178390
178198
178144
178151
178232
178267
178216
178302
178223
178284
178300
178195
178190
178303
178409
178310
178220
178298
178305
178258
178282
178284
178238
178181
178104
178085
178169
178217
178226
178211
178251
178147
178241
178190
178237
178260
178238
178281
178259
178217
178272
178248
178235
178172
177996
178021
178081
178215
178261
178210
178095
177977
178053
178150
178120
178146
178139
178154
178125
178101
178117
178163
178210
178017
178008
178129
178098
178175
178058
177998
178012
178018
178015
178000
178044
178070
178047
177999
177989
178056
178163
177967
178026
178103
178107
178027
178023
178021
177969
178042
177989
177942
177948
177950
177995
178006
177876
177923
177931
177998
177918
177886
178059
178016
177909
177869
177776
177760
177842
178076
177970
177923
177930
178025
177953
177935
177823
177915
177983
177907
177834
177786
177852
177852
177870
177885
177909
177951
177907
177896
177897
177854
177840
177879
177893
177860
177818
177886
177928
177793
177705
177733
177919
178043
177915
177921
177912
177820
177764
177822
177846
177827
177823
177802
177859
177980
177896
177957
177889
177724
177783
177729
177627
177830
177859
177925
177906
177770
177773
177831
177875
177895
177979
177967
177820
177781
177665
177632
177586
177567
177639
177612
177631
177641
177493
177440
177530
177723
177728
177756
177792
177799
177926
178017
178041
178011
178064
178023
178040
178041
178136
178019
178002
178011
177991
177929
178018
178077
178079
177971
177824
177675
177723
177648
177728
177713
177743
177763
177724
177820
177834
177733
177679
177674
177692
177827
177789
177764
177776
177817
177786
177724
177748
177715
177672
177669
177727
177789
177784
177754
177715
177632
177675
177857
177874
177764
177635
177742
177839
177844
177755
177637
177678
177727
177567
177616
177772
177833
177852
177896
177726
177711
177797
177807
177699
177736
177705
177766
177732
177759
177849
177777
177783
177736
177720
177709
177560
177651
177786
177714
177678
177661
177706
177840
177772
177700
177658
177744
177705
177696
177790
177848
177834
177758
177745
177676
177690
177841
177834
177861
177923
177785
177729
177733
177808
177853
177795
177790
177773
177864
177795
177696
177611
177674
177853
177857
177650
177745
177774
177704
177707
177624
177693
177803
177817
177858
177798
177793
177807
177809
177826
177788
177809
177764
177788
177774
177822
177961
177889
177836
177855
177852
177877
177974
178027
177909
177761
177885
178003
178034
177989
177969
177948
177864
177755
177766
177737
177794
177732
177802
177889
177850
177830
177853
177876
177883
177870
177896
177944
177923
177851
177789
177794
177800
177812
177880
177960
178107
178126
178033
177979
177963
177901
177889
178092
178053
178046
178113
178169
178094
178172
178211
178150
178170
178223
178258
178244
178297
178195
178147
178210
178162
178137
178176
178248
178331
178358
178393
178352
178440
178479
178479
178542
178486
178395
178434
178467
178556
178537
178508
178520
178598
178648
178676
178610
178648
178701
178659
178609
178611
178604
178616
178830
178768
178685
178624
178555
178680
178702
178661
178649
178683
178732
178738
178838
178747
178612
178659
178690
178818
178806
178722
178680
178650
178695
178766
178861
178873
178679
178741
178777
178731
178776
178787
178830
178805
178776
178840
178822
178823
178963
178997
179002
179083
179060
179005
178895
178864
178848
179023
179044
178994
179080
179113
179051
179038
179085
179105
179157
179186
179215
179145
179162
179198
179134
179256
179305
179281
179332
179333
179292
179314
179370
179437
179538
179501
179406
179461
179431
179466
179530
179522
179619
179587
179558
179575
179549
179550
179588
179623
179656
179642
179691
179677
179697
179711
179662
179769
179881
179932
179858
179871
179983
180042
180050
180074
180093
180152
180132
180065
180084
180036
180173
180060
180102
180197
180117
180131
180118
180177
180219
180229
180278
180213
180174
180181
180077
180124
180211
180248
180291
180213
180242
180221
180320
180306
180316
180438
180436
180458
180441
180422
180353
180363
180428
180438
180406
180397
180474
180555
180548
180563
180543
180562
180557
180509
180542
180602
180593
180598
180558
180513
180545
180568
180475
180596
180634
180687
180749
180610
180568
180554
180574
180619
180655
180633
180632
180726
180726
180729
180794
180680
180750
180820
180748
180683
180736
180729
180727
180745
180786
180683
180691
180699
180745
180877
180774
180691
180829
180898
180737
180730
180811
180777
180794
180715
180765
180811
180794
180819
180886
180861
180902
180867
180807
180827
180738
180832
180879
180937
180875
180762
180848
180825
180782
180721
180876
180844
180817
180926
180859
180711
180726
180761
180898
180944
180920
180823
180831
180887
180905
180847
180822
180734
180771
180837
180872
180886
180865
180907
180886
180850
180932
181026
181023
180893
180890
180920
180808
180822
180929
180870
180850
180838
180831
180852
180831
180870
180886
180956
180885
180941
180831
180849
180905
180943
181017
181064
180964
180862
180876
180885
180907
180923
180837
180712
180677
180893
180902
180818
180560
180582
180708
180705
180746
180758
180766
180972
181044
180858
180809
180919
181008
181027
181047
181141
181132
181177
181169
181264
181348
181306
181192
181034
181103
181057
180948
180923
180994
181008
180906
180854
180936
180943
180986
180963
180807
180883
180914
180905
180807
180746
180725
180767
180742
180862
180934
180931
180872
180862
180836
180846
180790
180795
180911
180829
180677
180721
180784
180736
180811
180753
180705
180731
180711
180728
180588
180539
180675
180716
180746
180662
180799
180772
180676
180612
180580
180543
180674
180758
180627
180549
180550
180535
180526
180649
180642
180722
180633
180612
180609
180632
180714
180732
180675
180683
180519
180533
180551
180584
180577
180585
180597
180587
180583
180574
180484
180445
180422
180480
180495
180403
180428
180441
180455
180579
180571
180580
180435
180360
180329
180317
180354
180350
180404
180451
180385
180312
180407
180327
180308
180262
180226
180185
180260
180391
180328
180273
180360
180276
180262
180215
180290
180279
180329
180230
180138
180157
180200
180248
180207
180159
180211
180220
180158
180054
179946
180082
180174
180070
180052
180085
180068
179935
179983
180093
180113
180177
180049
179938
179863
179880
179952
179990
180064
180035
180006
180007
179965
179998
179913
179785
179891
179881
179792
179870
179861
179922
179937
179839
179813
179833
179788
179764
179794
179907
179866
179876
179893
179915
179915
179824
179768
179714
179769
179704
179686
179962
179833
179761
179887
179872
179919
179895
179744
179703
179680
179772
179924
179964
179904
179831
179743
179813
179810
179707
179694
179752
179767
179766
179765
179661
179742
179812
179742
179788
179682
179654
179674
179686
179675
179629
179632
179659
179697
179713
179606
179584
179644
179710
179641
179613
179637
179628
179641
179643
179543
179606
179599
179494
179506
179432
179451
179479
179482
179540
179517
179604
179589
179545
179493
179431
179462
179416
179525
179550
179436
179415
179455
179496
179524
179480
179491
179543
179438
179281
179322
179449
179432
179329
179371
179331
179465
179449
179347
179334
179275
179344
179358
179291
179347
179388
179415
179327
179273
179292
179363
179407
179401
179354
179325
179218
179286
179365
179485
179454
179384
179387
179360
179353
179372
179355
179393
179401
179370
179289
179178
179178
179172
179284
179337
179240
179209
179278
179233
179187
179256
179290
179226
179187
179161
179192
179267
179192
179180
179200
179203
179284
179221
179292
179225
179247
179303
179271
179190
179226
179147
179095
179106
179237
179294
179176
179193
179282
179222
179225
179204
179218
179183
179164
179144
179196
179225
179178
179155
179105
178995
178983
178933
178959
179015
179082
179152
179205
179209
179211
179122
179081
179055
179034
179109
179128
179107
179063
179155
179235
179216
179183
179146
179066
179043
178951
179006
179038
179129
179079
178962
179045
179093
179106
179117
179026
179001
179017
179028
179099
179071
178965
178909
178877
178989
179022
179035
179020
178935
178899
178970
179015
178948
178893
179031
178992
178988
179094
179088
179002
178893
179010
179013
179003
178989
179031
179060
179161
179088
178993
178935
178959
178932
178920
179021
179021
179007
178824
178819
178810
178897
178984
178993
178981
178974
178824
178924
179013
179050
178978
178848
178940
178938
178933
178925
178938
178899
178742
178715
178827
178793
178825
178857
178878
178818
178722
178780
178759
178809
178729
178675
178636
178493
178483
178606
178720
178644
178608
178711
178892
178851
178951
178908
179102
179094
179051
179106
179130
179064
179043
179011
178988
179068
179005
178979
178923
178991
179022
178932
178799
178747
178809
178796
178786
178827
178708
178738
178701
178771
178753
178606
178709
178685
178754
178724
178648
178697
178715
178766
178641
178607
178662
178735
178850
178841
178691
178784
178871
178788
178723
178623
178617
178613
178614
178577
178615
178637
178672
178758
178735
178677
178653
178683
178704
178662
178634
178640
178648
178625
178604
178569
178573
178640
178615
178650
178586
178607
178571
178525
178520
178493
178580
178595
178501
178490
178557
178690
178655
178622
178587
178562
178522
178491
178521
178533
178477
178550
178503
178585
178593
178502
178494
178469
178469
178482
178488
178507
178511
178607
178565
178403
178429
178408
178421
178420
178421
178453
178442
178401
178408
178312
178285
178319
178412
178522
178528
178564
178559
178698
178440
178253
178321
178344
178439
178345
178396
178504
178501
178474
178332
178384
178421
178426
178367
178334
178345
178391
178444
178469
178432
178389
178430
178441
178399
178259
178268
178410
178418
178400
178395
178386
178370
178413
178425
178388
178386
178419
178329
178376
178438
178339
178397
178471
178488
178329
178234
178390
178448
178348
178360
178230
178211
178175
178200
178228
178185
178292
178308
178310
178329
178183
178183
178277
178346
178276
178261
178282
178275
178255
178304
178258
178254
178327
178297
178288
178252
178281
178282
178359
178400
178342
178254
178193
178236
178247
178267
178310
178124
178040
178162
178127
178152
178188
178203
178217
178192
178283
178179
178156
178189
178187
178189
178082
178018
178059
177997
177931
178057
178119
178182
178197
178142
178140
178120
178103
178078
178058
177990
178028
178109
178178
178126
178078
178037
178041
177947
177810
177842
177883
177814
177745
177794
178014
178044
177920
177837
177880
177854
177829
177809
177681
177857
177913
177910
177895
177825
177872
177853
177844
177848
177848
177807
177844
177920
177893
177803
177804
177858
177942
177787
177781
177820
177860
177831
177812
177770
177854
177892
177866
177791
177776
177872
177818
177778
177750
177711
177875
177858
177768
177751
177747
177782
177808
177822
177793
177729
177750
177807
177831
177816
177734
177705
177680
177688
177811
177777
177841
177937
177951
177823
177744
177806
177744
177739
177677
177645
177667
177636
177685
177777
177785
177705
177718
177639
177641
177665
177731
177725
177764
177744
177696
177660
177709
177775
177825
177719
177579
177650
177753
177655
177551
177673
177726
177651
177703
177648
177761
177758
177627
177579
177649
177664
177653
177706
177678
177657
177786
177803
177739
177713
177583
177610
177679
177767
177726
177628
177629
177655
177650
177610
177620
177693
177703
177709
177666
177647
177641
177700
177840
177808
177659
177596
177645
177626
177646
177580
177629
177666
177670
177792
177700
177724
177686
177564
177563
177535
177628
177715
177637
177642
177747
177837
177780
177705
177670
177595
177550
177506
177589
177650
177532
177558
177641
177607
177584
177629
177674
177589
177691
177635
177647
177682
177620
177566
177555
177546
177607
177581
177594
177676
177555
177666
177750
177645
177609
177647
177711
177704
177625
177635
177609
177625
177635
177584
177652
177637
177690
177766
177709
177524
177489
177571
177675
177673
177672
177575
177630
177650
177646
177693
177660
177721
177649
177569
177593
177580
177524
177525
177540
177525
177371
177295
177406
177364
177563
177471
177548
177552
177458
177407
177366
177495
177595
177707
177792
177772
177794
177844
177821
177882
177763
177806
177944
177945
177866
177826
177872
177927
177780
177730
177693
177739
177719
177677
177674
177654
177685
177668
177749
177721
177635
177667
177726
177731
177689
177702
177765
177784
177789
177736
177717
177724
177758
177788
177896
177721
177744
177781
177822
177874
177850
177889
177785
177757
177772
177826
177960
177965
177954
177896
177767
177850
177916
177937
177935
177913
177948
177922
177919
177941
177852
177809
177893
177861
177764
177787
177933
177982
178047
178000
177901
177902
177841
177977
177898
177956
177908
177807
177837
177857
177855
177979
177988
177895
177879
177899
177952
177867
177829
177772
177743
177757
177817
177751
177762
177799
177822
177852
177898
177834
177762
177863
177759
177701
177700
177787
177901
177931
177866
177813
177812
177838
177843
177758
177693
177623
177647
177750
177768
177729
177673
177756
177790
177677
177770
177816
177793
177776
177691
177590
177626
177717
177695
177657
177607
177625
177629
177691
177712
177672
177643
177806
177714
177625
177682
177640
177588
177549
177634
177650
177691
177766
177690
177700
177678
177516
177570
177551
177573
177671
177589
177509
177522
177557
177593
177611
177701
177670
177579
177541
177569
177630
177673
177660
177650
177600
177622
177640
177583
177622
177591
177606
177555
177572
177601
177612
177592
177677
177630
177623
177528
177591
177628
177627
177625
177691
177715
177724
177642
177630
177586
177704
177729
177665
177650
177658
177708
177749
177777
177723
177582
177567
177620
177653
177749
177798
177699
177706
177757
177740
177661
177709
177729
177685
177676
177652
177717
177715
177623
177597
177512
177617
177808
177769
177690
177538
177645
177597
177558
177581
177607
177606
177527
177567
177570
177623
177674
177620
177609
177600
177527
177616
177650
177587
177560
177535
177587
177583
177589
177470
177464
177579
177656
177518
177559
177582
177647
177685
177646
177557
177547
177592
177538
177478
177511
177535
177629
177634
177470
177437
177354
177446
177441
177461
177544
177473
177485
177545
177517
177446
177368
177382
177410
177468
177480
177381
177448
177414
177414
177489
177426
177426
177431
177410
177435
177374
177403
177394
177371
177403
177430
177496
177491
177416
177419
177314
177350
177336
177400
177340
177381
177433
177402
177373
177325
177225
177282
177354
177353
177291
177334
177380
177400
177392
177329
177292
177363
177356
177273
177317
177301
177346
177314
177321
177302
177351
177396
177326
177381
177261
177242
177358
177345
177352
177344
177275
177268
177245
177213
177205
177206
177251
177251
177257
177222
177217
177233
177228
177322
177229
177132
177210
177186
177210
177191
177090
177068
177134
177164
177159
177122
177254
177297
177314
177293
177275
177271
177167
177169
177292
177202
177159
177204
177203
177143
177116
177144
177233
177255
177211
177200
177253
177218
177150
177056
176986
177034
177121
177152
177091
177086
177158
177068
177013
177034
176974
177099
177057
177082
177111
177045
176974
176921
176966
176982
176989
177062
177133
177072
176991
176882
176948
177001
176880
176970
176975
176892
176884
176978
177041
177002
176920
176977
176955
176937
176900
176865
176849
176925
176993
176909
177002
177072
176987
176966
176892
176965
176966
176960
176998
176850
176897
176933
176955
176927
176996
177063
177013
176952
176953
176880
176907
176948
176982
176933
176850
176848
176808
176821
176904
176755
176767
176809
176862
176848
176782
176755
176738
176682
176584
176580
176582
176726
176791
176724
176691
176715
176816
176826
176821
176858
176966
177010
177083
177214
177172
177158
177112
177161
177099
177011
177041
177055
176952
176917
176879
176889
176898
176904
176878
176863
176883
176858
176748
176762
176743
176668
176834
176959
176942
176875
176805
176749
176760
176702
176647
176727
176869
176832
176815
176727
176778
176877
176811
176774
176734
176783
176720
176757
176781
176772
176765
176764
176728
176734
176761
176739
176729
176768
176751
176618
176695
176787
176881
176834
176837
176822
176807
176664
176632
176610
176635
176711
176743
176645
176513
176623
176693
176784
176772
176742
176742
176750
176793
176762
176604
176646
176675
176701
176805
176749
176747
176684
176702
176661
176626
176684
176709
176771
176729
176624
176608
176756
176735
176703
176610
176576
176569
176567
176513
176492
176534
176619
176575
176603
176607
176596
176584
176631
176618
176618
176633
176593
176572
176516
176422
176406
176362
176463
176434
176395
176450
176456
176525
176519
176388
176388
176401
176443
176441
176443
176523
176415
176358
176353
176286
176324
176446
176421
176410
176395
176383
176388
176397
176435
176420
176423
176458
176429
176343
176275
176268
176270
176301
176318
176286
176365
176362
176362
176437
176406
176388
176296
176250
176241
176303
176340
176417
176339
176319
176318
176378
176426
176442
176408
176258
176257
176372
176519
176497
176391
176390
176376
176496
176496
176474
176438
176495
176525
176483
176471
176466
176361
176462
176570
176582
176594
176490
176423
176388
176429
176466
176423
176381
176486
176433
176489
176485
176434
176468
176417
176392
176409
176461
176327
176285
176452
176426
176433
176322
176290
176390
176429
176367
176298
176245
176382
176440
176428
176391
176226
176250
176331
176273
176362
176280
176296
176296
176289
176234
176062
176089
176141
176181
176195
176124
176226
176134
176231
176190
176137
176109
176126
176086
176117
176144
176094
176084
176130
176113
176169
176223
176202
176144
176110
176068
176203
176252
176180
176076
175991
176067
176084
176006
175989
175994
176038
176008
176021
176033
175936
175932
176006
176079
176111
176068
176078
176022
176052
176081
175975
176040
176067
176034
175928
175928
176116
176132
176035
176067
176030
176125
176144
176076
176036
176026
176104
176205
176248
176116
175912
176024
176079
176081
176047
176006
176143
176153
176136
176143
176063
176083
176012
176072
176080
176001
176008
176030
176060
176150
176131
176155
176120
176111
176135
176126
176088
176120
176034
176015
176033
176063
176097
176077
176083
176102
176168
176129
176141
176179
176108
176138
176102
176080
176168
176142
176145
176114
176141
176219
176174
176221
176067
176116
176085
176029
176115
176107
176133
176193
176143
176166
176088
176126
176126
176014
176066
176053
176185
176178
176109
176155
176149
176080
176115
176175
176199
176161
176031
176060
176197
176081
176124
176172
176202
176211
176207
176094
176033
176067
176161
176183
176079
176174
176121
176106
176159
176217
176218
176171
176036
176099
176114
176111
176134
176125
176100
176055
176065
176066
176058
176071
176178
176265
176176
176066
176177
176238
176207
176203
176128
176128
176161
176175
176179
176097
176129
176256
176264
176262
176233
176254
176247
176193
176193
176184
176211
176212
176243
176187
176185
176232
176257
176210
176188
176224
176226
176183
176127
176102
176053
176044
176085
176101
176080
175922
175958
175975
175902
175852
175883
175907
175975
176025
176140
176233
176381
176442
176455
176502
176512
176451
176444
176485
176551
176598
176537
176521
176477
176451
176385
176410
176348
176283
176298
176189
176222
176268
176288
176293
176166
176276
176306
176284
176346
176337
176246
176283
176329
176244
176149
176219
176276
176335
176331
176245
176244
176228
176277
176268
176193
176246
176281
176225
176182
176141
176166
176174
176231
176166
176126
176093
176088
176116
176327
176246
176181
176158
176216
176166
176131
176146
176116
176138
176136
176049
176062
176039
176071
176139
176020
176056
176014
176064
176072
176028
176022
175991
175990
176017
175943
175930
175981
176054
176088
176055
175998
176073
176052
175953
175934
175981
175899
175916
175966
176034
176007
175955
175937
176075
176056
175952
175905
175852
175864
175874
175916
175869
175805
175863
175869
175843
175798
175794
175909
175785
175785
175841
175801
175727
175659
175698
175788
175788
175703
175713
175841
175818
175746
175732
175680
175755
175764
175675
175768
175826
175820
175677
175630
175640
175688
175798
175747
175726
175655
175642
175727
175686
175681
175682
175569
175539
175671
175705
175708
175712
175724
175751
175665
175605
175607
175657
175741
175749
175791
175692
175705
175685
175697
175741
175771
175923
175813
175680
175685
175749
175784
175698
175793
175831
175715
175642
175646
175642
175635
175637
175704
175733
175766
175717
175728
175825
175822
175732
175741
175787
175807
175771
175780
175738
175717
175797
175730
175775
175769
175715
175659
175686
175722
175810
175743
175837
175878
175776
175657
175765
175871
175880
175820
175839
175780
175847
175869
175802
175775
175680
175716
175749
175821
175878
175870
175836
175769
175774
175857
175845
175890
175921
175883
175802
175843
175811
175827
175919
175897
175822
175868
175844
175758
175717
175785
175894
175893
175900
175911
175840
175856
175801
175857
175792
175757
175786
175749
175699
175740
175809
175774
175857
175843
175787
175664
175735
175829
175795
175746
175791
175790
175774
175854
175815
175822
175934
175904
175849
175884
175850
175916
175865
175833
175843
175829
175868
175889
175953
175919
175933
175939
176018
175947
175927
175820
175938
176015
175957
175874
175824
175907
175912
175938
175937
175959
176003
176034
175984
175915
175923
176010
176037
176114
176098
176062
176153
176053
176093
176173
176070
176136
176155
176117
176209
176250
176247
176262
176206
176289
176193
176224
176187
176166
176119
176097
176164
176173
176330
176316
176360
176360
176319
176353
176405
176347
176368
176327
176286
176300
176319
176332
176360
176412
176465
176301
176247
176200
176309
176379
176370
176401
176408
176434
176413
176435
176382
176398
176376
176458
176501
176487
176440
176451
176446
176406
176413
176427
176411
176392
176472
176530
176528
176581
176588
176558
176595
176518
176543
176562
176483
176491
176534
176579
176625
176579
176613
176515
176463
176430
176424
176553
176598
176594
176741
176595
176561
176569
176624
176629
176557
176637
176606
176646
176759
176753
176757
176707
176732
176689
176671
176776
176848
176834
176805
176837
176868
176828
176789
176760
176770
176801
176846
176907
176924
176811
176850
176862
176859
176891
176851
176900
176973
176992
176939
176977
177065
177049
177060
176974
176904
177000
177037
177112
177052
177004
177126
177245
177202
177170
177157
177217
177146
177155
177203
177099
176991
177096
177050
177077
177140
177203
177239
177250
177289
177284
177344
177278
177134
177172
177094
177217
177239
177232
177193
177087
177161
177160
177092
177090
177077
177069
177000
177008
177092
177139
177137
177233
177212
177303
177284
177342
177412
177443
177592
177603
177633
177658
177650
177703
177724
177727
177717
177782
177807
177631
177489
177441
177410
177428
177497
177573
177573
177478
177612
177548
177542
177457
177402
177481
177480
177459
177505
177592
177524
177568
177661
177617
177606
177555
177569
177678
177771
177635
177587
177612
177599
177560
177640
177702
177738
177706
177672
177654
177668
177612
177781
177835
177815
177715
177630
177740
177731
177684
177647
177693
177807
177801
177771
177724
177724
177738
177744
177783
177807
177790
177759
177736
177786
177755
177647
177735
177815
177862
177771
177704
177747
177806
177735
177816
177850
177910
177929
177846
177824
177736
177824
177822
177864
177704
177715
177831
177812
177878
177838
177773
177747
177782
177848
177861
177807
177805
177815
177847
177914
177849
177843
177773
177808
177896
177928
177777
177753
177775
177846
177827
177812
177780
177838
177897
177858
177812
177769
177781
177868
177798
177800
177869
177851
177798
177609
177606
177691
177788
177852
177811
177811
177792
177757
177716
177679
177751
177773
177732
177756
177674
177721
177863
177779
177797
177757
177691
177699
177691
177746
177724
177708
177740
177736
177806
177696
177694
177716
177725
177733
177741
177780
177732
177670
177733
177745
177704
177643
177682
177777
177830
177786
177715
177616
177645
177613
177627
177704
177766
177772
177663
177753
177767
177856
177833
177815
177760
177781
177771
177789
177766
177756
177661
177648
177767
177792
177860
177862
177802
177790
177784
177782
177797
177766
177672
177618
177734
177794
177816
177808
177742
177677
177688
177714
177717
177681
177672
177619
177585
177655
177601
177563
177547
177673
177656
177608
177618
177678
177643
177573
177500
177539
177565
177593
177670
177632
177544
177577
177577
177574
177538
177543
177658
177651
177596
177544
177525
177543
177582
177600
177505
177585
177678
177571
177439
177342
177448
177561
177535
177529
177517
177469
177460
177507
177485
177385
177439
177437
177387
177403
177432
177458
177464
177496
177512
177460
177396
177371
177400
177374
177338
177420
177430
177473
177456
177395
177427
177347
177327
177391
177376
177400
177404
177396
177451
177372
177324
177241
177354
177439
177433
177379
177348
177364
177416
177341
177272
177271
177279
177264
177266
177344
177365
177436
177325
177258
177378
177323
177281
177318
177158
177146
177293
177301
177288
177311
177389
177325
177312
177329
177298
177317
177320
177218
177157
177146
177142
177162
177212
177268
177215
177237
177281
177362
177298
177165
177227
177229
177218
177239
177258
177319
177329
177312
177239
177137
177168
177181
177097
177174
177214
177211
177165
177261
177311
177216
177216
177244
177231
177181
177047
177097
177166
177159
177129
177068
177140
177151
177153
177082
177006
176998
177002
177072
177127
177128
177062
177037
177013
177028
176978
177010
176994
177036
177026
177037
176985
176953
176974
177040
176975
177060
177102
177046
176917
176930
176943
176931
176954
176946
176931
176964
176994
176890
176951
176996
176979
177004
177142
177070
176903
176958
177011
177071
177109
177011
177051
177078
176956
176959
176987
176967
176974
176964
177057
177050
176951
176944
176964
176977
176949
176941
176949
176904
176852
176904
176996
177037
177035
176939
176868
176899
177003
177069
177007
176890
176962
176939
176913
176982
176969
176853
176892
176913
176871
176827
176856
176850
176745
176804
176740
176739
176836
176886
176801
176725
176857
176917
176887
177027
177194
177307
177264
177151
177215
177175
177193
177226
177226
177221
177171
177122
177139
177083
177031
176944
176983
176931
176959
176962
176835
176877
176926
176904
176969
176963
176966
177010
176922
176893
176890
176959
176912
176926
176921
176880
176929
176921
176940
176945
176980
177020
176986
176823
176868
176897
176831
176815
176814
176855
176719
176846
176920
176798
176765
176748
176836
176870
176845
176797
176805
176807
176897
176958
176868
176809
176868
176837
176841
176804
176820
176844
176783
176801
176867
176848
176943
176994
176966
176889
176807
176915
176956
176875
176859
176776
176761
176771
176815
176780
176800
176756
176788
176926
176893
176794
176827
176790
176740
176742
176682
176757
176846
176790
176813
176829
176792
176776
176770
176770
176756
176715
176773
176768
176912
176834
176796
176817
176843
176779
176789
176845
176850
176796
176781
176815
176789
176849
176883
176850
176757
176725
176671
176683
176715
176657
176722
176858
176806
176798
176778
176838
176837
176899
176835
176785
176792
176722
176793
176843
176785
176835
176835
176862
176893
176814
176852
176860
176838
176907
176947
176887
176860
176986
176957
176783
176774
176797
176835
176858
176863
176891
176823
176787
176774
176800
176811
176781
176749
176871
176847
176822
176729
176769
176791
176884
176929
176901
176836
176895
176768
176735
176840
176884
176941
176925
176823
176790
176819
176938
176855
176821
176764
176841
176885
176776
176804
176760
176911
176956
176883
176928
176905
176801
176814
176798
176783
176739
176803
176872
176743
176754
176831
176805
176755
176728
176826
176787
176792
176788
176748
176729
176803
176841
176785
176701
176835
176856
176734
176710
176738
176734
176800
176798
176781
176721
176787
176727
176832
176855
176811
176871
176794
176746
176803
176719
176727
176714
176651
176723
176661
176755
176726
176786
176845
176814
176801
176786
176783
176802
176735
176716
176661
176678
176765
176715
176723
176775
176675
176781
176739
176775
176801
176781
176763
176798
176823
176785
176779
176776
176822
176785
176733
176756
176831
176855
176823
176766
176834
176724
176636
176765
176765
176788
176899
176933
176980
176974
176923
176838
176842
176944
176819
176731
176704
176681
176795
176848
176831
176792
176783
176761
176737
176761
176827
176772
176718
176776
176813
176819
176779
176821
176863
176810
176791
176678
176641
176773
176895
176844
176762
176802
176806
176869
176850
176824
176795
176807
176757
176747
176719
176703
176741
176789
176749
176723
176740
176723
176719
176757
176783
176832
176850
176755
176791
176803
176928
176870
176806
176795
176859
176816
176685
176652
176677
176720
176802
176862
176881
176837
176833
176893
176897
177005
177004
176860
176798
176834
176789
176763
176697
176700
176731
176792
176849
176892
176943
176970
176915
176853
176845
176768
176760
176815
176759
176822
177049
176918
176812
176823
176829
176904
176988
176961
176889
176816
176832
176831
176898
176934
176840
176902
176918
176907
176920
176909
176948
176958
177015
176896
176799
176748
176818
176918
176886
176854
176820
176880
176868
176878
176843
176893
176884
176905
176940
176920
176813
176886
176850
176909
176879
176801
176732
176848
176919
176944
176985
177004
176991
176969
176966
177036
177022
176860
176886
176926
176930
176975
176986
176936
176925
176921
176930
176975
176998
176946
177052
177075
177052
177001
176924
176919
176814
176851
176939
176964
176992
177015
176980
176943
176962
177017
177028
176979
176902
176783
176858
176920
176927
176945
176842
176841
176849
176849
176782
176672
176824
176805
176812
176862
176842
176862
177011
177042
177011
176984
177090
177176
177276
177285
177341
177311
177292
177318
177255
177215
177212
177268
177238
177144
177068
177146
177173
177132
177078
176995
176963
176942
176916
176949
176943
176969
177009
177051
177032
176985
177042
177006
176893
176978
176997
177014
177146
177160
176981
176921
176960
176992
177054
177044
176993
176979
177015
177000
176956
176942
176974
176970
176964
177008
177036
177064
177018
177010
177032
177114
177156
177134
177075
177068
177043
177087
177127
177072
177064
177079
177067
177020
176950
176906
176910
177049
177033
177035
177070
177001
177103
177030
177079
177085
177027
177043
177014
176954
176965
176992
176965
177060
177007
176981
176995
177036
177014
177004
176979
176942
176991
176957
176958
177006
176937
176952
177029
176999
177036
176909
176880
176934
176921
176876
176867
176918
176909
176981
176948
176904
176876
176940
177064
177024
176930
176998
176978
176876
176911
176928
176991
176946
176895
176882
176858
176922
176961
177018
177142
177096
177019
176946
176985
176965
176960
176973
176993
176875
176938
176932
176982
177029
177015
177027
176962
176995
177035
176958
176905
176907
176880
176864
176836
176910
176978
176978
177011
177027
176942
176865
176866
176898
176922
176929
176879
176920
176889
176912
176919
176916
177000
176908
176891
176976
176941
176888
176856
176899
176964
176886
176943
177023
176983
176913
176836
176892
176930
176887
176914
176930
177110
177133
176976
176952
176912
176912
176914
176928
176973
176918
176965
176940
176944
176870
176813
176826
176921
177033
177033
176979
177000
176983
176889
176877
176886
176831
176940
176966
176850
176851
176922
176850
176871
176876
176847
176872
176943
177042
177031
176938
176846
176874
176813
176795
176845
176830
176826
176905
176940
176819
176750
176875
176935
176897
176933
176932
176837
176843
176880
176826
176854
176885
176821
176851
176853
176913
176827
176762
176678
176683
176839
176859
176825
176814
176937
176942
176858
176843
176914
176855
176839
176911
176862
176823
176832
176916
176871
176881
176907
176867
176857
176771
176855
176846
176844
176897
176898
176849
176813
176857
176942
176981
176984
176941
176899
176921
176912
176897
176777
176675
176802
176899
176860
176826
176824
176868
176937
176890
176903
176831
176956
176976
176906
176912
176801
176773
176733
176801
176856
176798
176897
176906
176854
176885
176821
176891
176894
176830
176901
176859
176858
176848
176922
176935
176903
176889
176909
176813
176845
176765
176744
176759
176793
176871
176869
176877
176975
177008
176851
176754
176845
176937
176962
176940
176904
176867
176772
176772
176841
176796
176765
176891
176916
176940
176845
176802
176883
176851
176843
176793
176815
176787
176875
176888
176872
176868
176856
176818
176889
176772
176787
176788
176745
176808
176749
176794
176837
176849
176796
176785
176826
176818
176879
176956
176971
177025
176900
176748
176790
176767
176859
176858
176807
176912
176957
176938
176937
176938
176886
176898
176914
176802
176824
176834
176859
176831
176790
176788
176841
176823
176854
176878
176837
176791
176724
176816
176820
176791
176768
176722
176740
176849
176811
176857
176827
176764
176823
176823
176716
176698
176793
176824
176846
176810
176777
176903
176888
176893
176858
176779
176793
176846
176823
176827
176841
176993
177030
176921
176880
176897
176843
176796
176783
176764
176732
176787
176831
176879
176846
176796
176781
176781
176839
176826
176934
176940
176922
176903
176876
176848
176860
176831
176798
176794
176834
176929
177016
177053
176944
176870
176921
176895
176871
176928
176946
176940
176917
176903
176889
176721
176680
176775
176763
176654
176599
176659
176592
176583
176602
176644
176655
176691
176742
176784
176830
176938
176985
177014
177072
177055
177104
177172
177194
177262
177198
177213
177105
177073
177110
177035
177058
177021
177014
176922
176858
176906
176930
176994
176996
176890
176942
176941
176926
176952
176920
176892
176829
176759
176834
176850
176968
176984
176927
176925
176877
176867
176953
176990
176852
176794
176792
176863
176993
177036
176932
177020
176909
176796
176800
176846
176835
176939
176992
176994
176906
176845
176853
176802
176782
176888
177026
177056
176991
176855
176736
176851
176861
176931
176906
176846
176980
176978
176942
176942
176855
176867
176924
176808
176766
176839
176898
176944
176966
176913
176838
176869
176895
176830
176787
176789
176899
176944
176892
176823
176837
176896
176873
176872
176897
176854
176804
176784
176847
176861
176825
176835
176801
176814
176779
176880
176888
176866
176884
176876
176816
176921
176911
176889
176882
176808
176841
176873
176814
176770
176708
176781
176882
176884
176791
176738
176805
176815
176798
176871
176922
176941
176816
176663
176647
176695
176918
176846
176854
176815
176791
176900
176866
176908
177001
176912
176982
176951
176945
177015
176995
176990
176962
177031
176944
176841
176859
176863
176836
176908
176933
176963
176931
176890
176877
176811
176892
176943
176957
176929
176910
176957
176948
176948
177031
176967
176868
176775
176871
176984
176891
176920
177096
177183
177122
177088
177060
176973
176962
177025
177060
177117
177100
177110
177063
176961
176965
177038
177061
177060
177043
177036
177008
177060
177028
177047
177105
177044
177044
177044
176990
177049
177136
177097
177069
177036
177116
177183
177148
177212
177130
177153
177148
177198
177242
177251
177296
177274
177340
177369
177139
177114
177239
177279
177192
177127
177156
177188
177192
177222
177175
177200
177251
177297
177343
177314
177335
177363
177271
177234
177225
177309
177438
177433
177418
177362
177369
177326
177386
177462
177418
177368
177354
177480
177542
177517
177525
177557
177484
177399
177376
177451
177560
177571
177592
177530
177427
177398
177484
177555
177525
177571
177619
177596
177581
177625
177642
177616
177603
177583
177657
177702
177652
177638
177660
177492
177536
177757
177802
177742
177616
177673
177750
177785
177865
177769
177753
177747
177766
177775
177858
177943
177807
177717
177740
177635
177691
177824
177977
177970
177834
177903
177939
177826
177773
177740
177742
177800
177863
177838
177834
177875
177930
177921
177952
177903
177850
177835
177887
177911
177911
177967
177950
177929
177914
177867
177925
178066
178037
178076
178133
178184
178099
177968
178004
177995
178039
178000
178027
178050
177955
178014
178028
177996
178018
178053
178105
177999
177938
177991
178086
178102
178037
177960
177981
177910
178012
178101
178128
178142
178078
178076
178106
178119
178087
178068
178127
178191
178143
178218
178150
178061
178129
178184
178170
178198
178196
178155
178192
178178
178139
178175
178096
178084
178135
178163
178166
178099
178051
178170
178154
178124
178184
178179
178162
178109
178125
178170
178228
178255
178214
178191
178128
178186
178198
178166
178133
178095
178062
178087
178103
178166
178219
178202
178195
178195
178196
178227
178202
178174
178141
178243
178228
178173
178165
178135
178110
178139
178190
178223
178197
178113
178144
178233
178302
178148
178127
178179
178210
178207
178095
178080
178069
178245
178261
178123
178229
178140
178097
178146
178170
178230
178162
178209
178265
178179
178186
178146
178028
178045
178016
177993
177931
177931
177882
177886
177897
177926
177923
177871
177781
177855
177812
177796
177857
177816
177913
177990
178109
178153
178203
178337
178283
178272
178319
178286
178219
178052
178019
178167
178178
178130
178061
178097
177926
177852
177876
177900
177855
177857
177811
177872
177873
177821
177798
177750
177829
177802
177777
177813
177745
177752
177682
177644
177789
177780
177703
177669
177634
177538
177493
177506
177561
177632
177710
177586
177531
177550
177548
177503
177471
177500
177507
177466
177507
177497
177511
177472
177382
177338
177300
177317
177365
177410
177424
177392
177481
177490
177380
177308
177222
177110
177154
177290
177386
177298
177169
177165
177210
177242
177172
177111
177194
177182
177131
177111
177159
177186
177118
177078
177058
177130
177148
177101
177072
177004
176904
176930
176936
176889
176884
176986
176955
176908
176907
176855
176882
176971
176840
176748
176700
176727
176777
176792
176832
176741
176790
176753
176653
176677
176689
176692
176672
176841
177130
177007
176830
176790
176764
176818
176765
176749
176676
176724
176697
176630
176563
176519
176527
176567
176568
176583
176549
176599
176563
176577
176635
176657
176639
176580
176479
176567
176573
176600
176546
176502
176486
176487
176503
176425
176346
176412
176416
176431
176440
176356
176360
176362
176288
176275
176206
176308
176326
176301
176235
176297
176351
176344
176312
176252
176190
176170
176183
176214
176226
176241
176214
176205
176167
176165
176134
176213
176238
176202
176145
176196
176213
176115
176033
175948
175935
176055
176114
176042
175998
175981
175947
175959
175924
175932
175901
175964
175954
175923
175872
175766
175802
175826
175850
175924
175907
175912
175895
175867
175704
175666
175812
175769
175757
175789
175800
175874
175804
175651
175636
175656
175671
175556
175598
175663
175613
175617
175546
175560
175540
175515
175593
175612
175558
175580
175594
175575
175559
175558
175552
175524
175508
175573
175538
175410
175430
175520
175575
175526
175478
175407
175441
175444
175350
175401
175354
175350
175412
175360
175342
175315
175289
175330
175258
175283
175277
175299
175295
175368
175377
175250
175200
175203
175269
175296
175187
175287
175382
175244
175260
175240
175243
175209
175156
175181
175241
175258
175237
175162
175103
175078
175156
175079
175069
174974
174932
175045
175041
175069
175044
175055
175100
175144
175137
175129
174967
175025
175083
175019
174945
174875
174973
174978
175019
175099
175044
175047
174968
174941
174980
174960
174930
174904
174955
174912
174761
174836
174911
174900
174934
174916
174868
174870
174868
174817
174769
174773
174887
174951
174870
174801
174839
174879
174804
174783
174750
174685
174681
174796
174756
174656
174695
174703
174776
174773
174748
174797
174818
174789
174726
174605
174548
174687
174762
174769
174640
174582
174608
174587
174525
174507
174553
174609
174689
174659
174576
174576
174633
174624
174581
174483
174522
174575
174575
174629
174562
174511
174512
174578
174611
174600
174513
174476
174544
174519
174424
174429
174492
174511
174513
174436
174493
174522
174539
174488
174500
174512
174403
174394
174429
174398
174416
174398
174347
174365
174335
174337
174369
174349
174397
174431
174423
174444
174385
174329
174329
174446
174542
174467
174320
174344
174484
174470
174400
174270
174190
174333
174334
174286
174384
174341
174352
174252
174240
174331
174184
174205
174248
174230
174243
174145
174178
174153
174069
174145
174234
174262
174247
174176
174168
174213
174226
174204
174208
174235
174189
174228
174255
174233
174223
174216
174218
174208
174168
174097
174135
174181
174166
174191
174131
174061
174076
174049
174169
174135
174039
174105
174100
174125
174196
174097
174175
174113
173948
173990
174013
174017
173987
173978
173936
173948
173941
173782
173756
173795
173760
173878
173756
173680
173817
173882
174010
173978
173951
173982
173995
174145
174256
174296
174259
174300
174367
174295
174259
174321
174296
174337
174260
174140
174130
174126
174106
173997
173905
173888
173886
173919
173899
173870
173935
173912
173925
173901
173880
173812
173814
173897
173935
173904
173971
173854
173834
173922
173898
173882
173857
173801
173868
173867
173828
173831
173850
173864
173890
173882
173881
173917
173841
173811
173843
173798
173781
173701
173802
173872
173737
173770
173746
173750
173804
173706
173749
173724
173672
173682
173688
173702
173805
173783
173732
173695
173716
173718
173790
173801
173710
173685
173677
173731
173785
173737
173750
173796
173702
173629
173638
173746
173630
173622
173661
173571
173713
173743
173713
173672
173688
173699
173693
173627
173550
173534
173576
173573
173573
173634
173593
173566
173537
173570
173628
173615
173547
173579
173530
173529
173568
173558
173566
173554
173507
173508
173644
173701
173601
173576
173589
173633
173582
173565
173569
173619
173622
173639
173523
173583
173620
173640
173617
173554
173571
173556
173644
173688
173710
173602
173492
173595
173625
173694
173616
173568
173590
173635
173564
173525
173550
173613
173631
173630
173671
173683
173625
173652
173670
173682
173685
173602
173545
173526
173526
173577
173547
173615
173625
173581
173594
173698
173686
173626
173639
173608
173658
173667
173612
173603
173703
173689
173701
173650
173666
173761
173723
173717
173665
173634
173631
173708
173670
173672
173711
173699
173639
173679
173672
173672
173696
173751
173709
173704
173598
173553
173654
173658
173668
173667
173654
173748
173725
173673
173679
173583
173647
173730
173673
173655
173527
173614
173762
173759
173706
173654
173728
173697
173667
173683
173666
173757
173774
173787
173800
173790
173763
173675
173634
173702
173675
173635
173623
173725
173786
173693
173671
173624
173692
173763
173716
173745
173734
173870
173845
173623
173604
173679
173714
173712
173710
173733
173791
173775
173715
173645
173701
173818
173733
173750
173702
173648
173706
173699
173692
173669
173692
173776
173756
173769
173697
173742
173753
173739
173673
173629
173678
173729
173728
173831
173852
173725
173657
173699
173766
173665
173687
173847
173873
173762
173740
173818
173779
173756
173800
173747
173797
173850
173800
173777
173763
173821
173732
173741
173745
173715
173756
173727
173754
173841
173776
173748
173755
173741
173818
173778
173823
173820
173842
173849
173815
173813
173841
173900
173816
173852
173869
173803
173807
173804
173810
173824
173710
173676
173800
173942
173875
173984
174017
173911
173718
173675
173854
173974
173846
173817
173845
173889
173851
173811
173877
173900
173871
173939
173903
173847
173794
173833
173793
173882
173907
173990
174034
174043
173977
174032
174236
174226
174046
174044
174075
174072
174058
174008
174025
173953
174061
174128
174090
174041
174014
174059
174029
174009
173996
173966
173955
173931
173897
173969
173979
173982
174060
173985
173975
173987
174088
174117
174065
174078
174019
173981
173994
173946
174034
174034
174175
174117
173980
173954
173967
174067
174052
174021
173989
173956
174018
173989
174006
174027
174006
174006
174071
174127
173985
173864
173973
173981
174002
173980
173919
174033
174134
174077
174071
174008
173907
173978
173983
174057
174010
173971
174081
174075
174037
173931
173982
174061
174098
174104
174118
174205
174239
174211
174312
174162
174125
174138
174142
174168
174047
174139
174204
174214
174177
174084
174133
174149
174107
174167
174166
174235
174283
174284
174272
174175
174145
174124
174194
174250
174274
174262
174170
174057
173934
173913
174014
174161
174239
174162
174029
174037
174023
174022
174067
174088
174120
174113
174155
174209
174253
174388
174501
174656
174627
174572
174625
174748
174746
174614
174588
174609
174651
174682
174591
174620
174621
174507
174426
174422
174431
174446
174486
174503
174488
174388
174428
174432
174483
174515
174521
174508
174493
174486
174482
174368
174400
174466
174455
174468
174408
174419
174414
174494
174534
174502
174418
174513
174477
174519
174512
174506
174498
174506
174545
174476
174607
174567
174465
174436
174447
174513
174517
174531
174532
174480
174578
174525
174521
174488
174454
174509
174541
174511
174517
174501
174521
174458
174443
174453
174472
174461
174554
174527
174509
174492
174499
174516
174533
174466
174424
174497
174606
174558
174649
174572
174578
174571
174652
174648
174529
174559
174558
174527
174512
174542
174601
174565
174547
174517
174523
174434
174472
174579
174609
174657
174643
174652
174641
174716
174632
174580
174584
174574
174528
174439
174548
174545
174632
174619
174468
174493
174661
174694
174694
174616
174572
174550
174556
174527
174533
174603
174642
174633
174526
174545
174630
174621
174667
174697
174583
174592
174569
174520
174608
174667
174641
174660
174654
174638
174516
174602
174572
174685
174665
174619
174658
174617
174633
174744
174707
174742
174808
174800
174719
174695
174698
174751
174732
174691
174691
174765
174734
174696
174876
174884
174827
174798
174844
174877
174813
174786
174817
174814
174826
174801
174746
174736
174810
174873
174876
174834
174757
174732
174836
174999
174957
174904
174890
174823
174778
174818
174867
174934
174966
174868
174879
174877
174918
174902
174875
174897
174858
174811
174830
174821
174931
174963
174912
174922
174886
174862
174884
174911
174887
174873
174897
174931
174899
174931
174891
174912
174892
174905
174980
174934
174970
174916
174926
174859
174860
174848
174893
174891
174956
174966
175000
175064
175006
174903
174784
174842
174884
174914
174920
174825
174767
174811
175004
175032
174983
174927
174969
174987
174906
174933
175004
174965
175021
175040
174933
174956
175044
175021
174991
174981
174942
175022
175047
174840
174874
174986
174995
174999
175083
175111
175143
175080
175019
174990
174988
175050
175081
175128
175176
175061
175029
175017
175012
175068
175047
175100
175037
175041
175107
175179
175124
175093
175065
175116
175127
175170
175205
175164
175086
175100
175100
175027
175125
175215
175151
175172
175178
175165
175148
175153
175194
175204
175208
175220
175210
175286
175272
175231
175248
175115
175203
175244
175234
175322
175299
175302
175262
175270
175157
175151
175229
175215
175201
175192
175194
175209
175237
175259
175339
175326
175290
175251
175231
175369
175283
175260
175291
175332
175307
175241
175222
175240
175271
175250
175258
175296
175248
175219
175215
175166
175341
175341
175321
175371
175344
175410
175420
175390
175308
175290
175326
175281
175206
175205
175314
175332
175332
175282
175269
175280
175321
175273
175329
175358
175402
175400
175314
175313
175302
175207
175205
175267
175252
175264
175262
175278
175389
175488
175439
175350
175384
175333
175328
175375
175309
175398
175436
175410
175407
175287
175255
175239
175227
175291
175306
175303
175282
175388
175359
175385
175298
175198
175254
175311
175298
175311
175236
175265
175234
175251
175273
175304
175298
175287
175322
175424
175443
175386
175421
175321
175327
175447
175526
175408
175383
175448
175435
175389
175428
175396
175343
175381
175400
175415
175363
175404
175391
175404
175460
175380
175333
175336
175367
175351
175386
175491
175512
175534
175516
175425
175454
175399
175353
175355
175388
175390
175470
175403
175353
175209
175299
175358
175299
175323
175339
175381
175447
175522
175520
175565
175659
175777
175897
175856
175778
175789
175874
175858
175952
175917
175897
175874
175829
175828
175733
175742
175854
175782
175738
175640
175691
175770
175741
175738
175736
175747
175730
175809
175812
175719
175701
175658
175709
175827
175753
175698
175720
175803
175787
175701
175714
175689
175733
175703
175688
175712
175730
175772
175735
175688
175752
175778
175743
175789
175811
175791
175811
175779
175835
175752
175770
175815
175729
175817
175841
175946
175853
175800
175903
175887
175872
175891
175841
175784
175641
175680
175740
175769
175881
175859
175890
175913
175936
175955
175839
175900
175925
175826
175846
175820
175870
175898
175923
176019
175870
175888
175971
176025
175976
175972
175936
175943
176052
176015
175942
175990
175938
175955
175988
175934
175912
175910
175914
175901
175979
176012
175947
175948
175969
176073
176023
175940
175963
175965
175985
176141
176136
176059
176072
176081
176133
176158
176134
176051
176153
176145
176112
176066
176089
176145
176196
176177
176097
176102
176117
176150
176306
176287
176246
176194
176173
176159
176231
176227
176120
176170
176245
176412
176288
176261
176352
176378
176319
176289
176295
176321
176315
176408
176393
176272
176230
176298
176347
176323
176260
176320
176284
176281
176328
176334
176385
176449
176464
176421
176390
176420
176397
176331
176331
176361
176437
176451
176411
176444
176410
176440
176493
176513
176479
176348
176431
176613
176589
176545
176390
176449
176487
176541
176550
176506
176522
176548
176599
176598
176681
176646
176481
176504
176502
176553
176573
176548
176605
176548
176575
176596
176477
176514
176485
176404
176486
176526
176526
176590
176524
176585
176604
176543
176491
176447
176505
176623
176568
176527
176550
176586
176584
176613
176572
176469
176607
176652
176651
176664
176595
176645
176645
176724
176680
176590
176587
176659
176689
176638
176486
176570
176566
176619
176658
176670
176608
176554
176555
176568
176546
176606
176538
176499
176571
176569
176602
176647
176619
176594
176633
176649
176661
176735
176648
176574
176585
176652
176684
176647
176650
176676
176724
176676
176618
176567
176633
176710
176752
176748
176703
176639
176550
176532
176531
176571
176658
176652
176524
176548
176593
176552
176619
176589
176567
176540
176596
176592
176550
176507
176517
176580
176606
176561
176555
176415
176395
176508
176558
176607
176684
176716
176592
176610
176598
176577
176620
176617
176568
176491
176398
176431
176530
176584
176546
176462
176479
176442
176396
176375
176439
176567
176523
176541
176519
176352
176301
176372
176394
176461
176391
176438
176459
176508
176461
176353
176414
176440
176452
176393
176371
176419
176319
176306
176309
176311
176361
176322
176315
176307
176239
176217
176315
176313
176319
176358
176340
176354
176308
176302
176282
176284
176309
176313
176320
176225
176249
176179
176174
176208
176167
176182
176269
176266
176203
176187
176142
176096
176160
176209
176137
176090
176125
176124
176158
176091
176172
176114
176032
175989
175960
176080
176093
176065
176100
176043
176083
176029
175959
175983
175966
175977
175981
176028
175956
175982
176003
175939
175881
176010
175940
175918
175964
175953
175913
175796
175884
175874
175824
175806
175715
175807
175931
175829
175699
175717
175663
175716
175661
175626
175561
175580
175623
175616
175570
175582
175708
175640
175644
175594
175502
175510
175566
175658
175615
175518
175517
175559
175623
175581
175444
175467
175541
175550
175507
175404
175535
175440
175355
175360
175337
175354
175399
175314
175416
175309
175332
175351
175404
175321
175322
175356
175376
175294
175234
175159
175235
175247
175214
175127
175175
175215
175234
175162
175075
174976
174979
174990
174957
174889
174794
174772
174789
174763
174732
174760
174851
174894
174968
174993
174910
175010
175092
175142
175186
175176
175128
175046
175036
175123
175053
175046
175069
175008
174968
174943
174915
174847
174836
174781
174674
174668
174627
174670
174691
174699
174700
174642
174575
174543
174489
174583
174676
174622
174598
174467
174515
174524
174545
174468
174465
174466
174471
174550
174587
174442
174410
174401
174382
174356
174352
174360
174323
174261
174207
174154
174237
174285
174314
174293
174188
174244
174323
174303
174156
174075
174156
174213
174105
174146
174097
174133
174141
174117
174207
174122
174065
174027
174027
174030
173956
173916
174002
174032
174004
173998
174010
173990
173919
173921
173858
173908
173908
173965
173996
173879
173940
173872
173786
173776
173779
173853
173821
173804
173776
173777
173822
173788
173801
173817
173777
173828
173802
173801
173749
173658
173694
173759
173680
173644
173527
173558
173594
173671
173718
173641
173625
173611
173648
173641
173558
173622
173662
173663
173577
173527
173545
173550
173581
173589
173582
173638
173676
173637
173590
173604
173583
173510
173503
173510
173532
173594
173505
173492
173575
173530
173574
173560
173555
173573
173512
173478
173429
173367
173393
173420
173471
173429
173419
173412
173369
173425
173428
173435
173436
173403
173457
173397
173420
173421
173387
173432
173452
173368
173407
173383
173381
173415
173453
173429
173368
173362
173395
173389
173332
173360
173465
173339
173290
173337
173294
173421
173451
173394
173409
173280
173278
173281
173257
173131
173181
173307
173335
173302
173343
173313
173305
173245
173240
173246
173224
173266
173219
173198
173243
173226
173334
173324
173278
173209
173218
173244
173181
173194
173256
173267
173247
173201
173182
173193
173131
173212
173216
173171
173169
173084
173149
173136
173119
173155
173097
173117
173102
173133
173214
173173
173155
173223
173206
173089
173056
173117
173139
173140
173218
173182
173146
173083
173128
173107
173088
173127
173113
173100
173072
173016
173154
173170
173124
173110
173116
173128
173173
173162
173075
173075
173156
173164
173141
173140
173073
173024
173081
173172
173145
173133
173154
173181
173130
173105
173043
173012
173057
173140
173126
173080
173107
173185
173190
173192
173066
173114
173172
173202
173187
173143
173202
173253
173238
173232
173154
173179
173145
173065
173168
173087
173008
173113
173257
173329
173263
173154
173135
173132
173117
173113
173126
173135
173205
173231
173137
173165
173230
173195
173177
173139
173149
173150
173096
173165
173175
173257
173294
173266
173246
173196
173184
173160
173176
173152
173160
173186
173285
173335
173307
173257
173228
173206
173251
173186
173156
173332
173375
173281
173294
173281
173212
173183
173146
173272
173356
173310
173317
173305
173235
173242
173175
173182
173248
173266
173213
173240
173244
173212
173251
173246
173271
173347
173374
173280
173212
173254
173290
173294
173299
173270
173356
173339
173276
173304
173307
173341
173363
173387
173353
173330
173249
173237
173254
173259
173322
173382
173379
173322
173245
173212
173285
173285
173263
173246
173219
173281
173334
173308
173372
173304
173356
173388
173346
173400
173367
173249
173282
173366
173391
173336
173381
173400
173453
173435
173332
173376
173394
173421
173431
173292
173455
173435
173411
173463
173399
173436
173499
173521
173548
173403
173409
173494
173436
173455
173441
173422
173407
173431
173475
173476
173574
173573
173597
173500
173417
173447
173429
173383
173400
173345
173397
173390
173343
173264
173254
173351
173280
173275
173309
173242
173233
173227
173355
173418
173431
173574
173767
173798
173832
173826
173879
173939
173988
174059
173991
173852
173786
173756
173749
173682
173656
173643
173612
173622
173597
173602
173697
173711
173601
173528
173503
173604
173688
173620
173553
173596
173592
173638
173645
173576
173616
173684
173618
173632
173559
173631
173627
173590
173615
173585
173663
173659
173701
173669
173699
173767
173712
173720
173728
173721
173800
173778
173747
173750
173660
173553
173661
173694
173743
173701
173641
173690
173804
173815
173764
173713
173656
173655
173596
173557
173723
173754
173775
173668
173626
173670
173785
173769
173706
173639
173616
173718
173768
173752
173755
173790
173774
173816
173836
173728
173765
173752
173769
173755
173715
173746
173768
173696
173619
173662
173757
173749
173652
173603
173629
173805
173856
173796
173756
173673
173678
173675
173792
173764
173673
173742
173746
173736
173730
173669
173661
173673
173779
173788
173800
173911
173873
173863
173841
173728
173853
173766
173721
173656
173667
173761
173784
173778
173835
173863
173872
173820
173796
173848
173829
173891
173911
173852
173873
173839
173815
173809
173755
173822
173841
173846
173912
173881
173874
173876
173945
173904
173871
173996
173951
173967
173912
173865
173911
173954
173985
174141
174211
174123
173990
173953
173980
173949
173925
173996
174054
173991
173975
174019
174019
174050
174026
173961
173992
173966
173976
174018
174060
174051
173989
174086
174073
174112
174049
174077
174169
174206
174176
174139
174055
174018
174089
174156
174311
174125
174110
174261
174197
174196
174140
174140
174169
174186
174204
174146
174201
174198
174223
174144
174112
174190
174234
174240
174296
174168
174146
174167
174197
174199
174256
174271
174211
174197
174253
174176
174156
174267
174193
174176
174211
174224
174196
174197
174209
174144
174184
174295
174317
174246
174176
174252
174251
174183
174157
174172
174293
174222
174184
174147
174220
174179
174207
174268
174319
174197
174257
174268
174255
174236
174252
174316
174290
174346
174374
174268
174245
174275
174271
174216
174151
174262
174280
174279
174335
174366
174355
174290
174290
174327
174258
174276
174282
174226
174207
174183
174216
174328
174298
174307
174274
174210
174282
174306
174253
174216
174215
174271
174308
174331
174322
174265
174232
174305
174354
174308
174338
174343
174340
174294
174230
174278
174324
174233
174256
174257
174294
174279
174348
174417
174311
174299
174277
174356
174409
174349
174327
174355
174401
174376
174328
174361
174424
174446
174368
174324
174352
174381
174392
174324
174315
174381
174308
174362
174512
174417
174406
174377
174303
174345
174310
174327
174371
174378
174374
174358
174392
174426
174409
174411
174358
174313
174383
174411
174442
174467
174506
174517
174597
174492
174413
174409
174455
174390
174419
174386
174446
174439
174466
174515
174404
174409
174423
174367
174418
174454
174404
174426
174438
174401
174440
174480
174448
174481
174511
174480
174497
174489
174408
174449
174436
174411
174454
174530
174513
174418
174459
174558
174545
174513
174539
174567
174536
174548
174434
174420
174495
174529
174451
174353
174392
174493
174483
174444
174482
174471
174570
174631
174570
174542
174529
174581
174487
174439
174398
174339
174543
174646
174564
174560
174573
174475
174458
174607
174611
174624
174620
174646
174609
174526
174614
174700
174682
174602
174644
174707
174693
174701
174667
174579
174637
174648
174594
174691
174683
174668
174667
174666
174751
174693
174607
174551
174528
174656
174640
174636
174706
174699
174661
174682
174641
174667
174722
174743
174745
174657
174687
174689
174694
174674
174629
174583
174534
174535
174444
174391
174476
174596
174603
174542
174476
174585
174653
174718
174755
174781
174890
175011
175073
175013
175038
175121
175155
175079
175035
175037
175120
175107
175061
175072
175007
175039
174979
175006
174970
174885
174825
174892
174933
174928
174884
174927
174936
174916
174922
174842
174840
174809
174871
174875
174789
174948
174947
174937
174972
174858
174943
174951
174996
174976
174984
174978
174973
174943
174887
174902
174934
174946
174970
174897
174895
174928
174868
174909
174989
174846
174920
174925
174941
174967
174909
174944
174957
174928
174932
174869
174894
174881
174963
175014
174957
174979
174954
174973
175026
175011
174995
174938
174993
174973
175057
175039
175058
175038
175029
174978
174964
175008
175027
175004
175034
175152
175127
175032
175075
175044
174951
174954
174977
175054
174958
175066
175220
175212
175153
174979
174988
175027
175058
175000
174938
174961
174981
175048
174971
174995
175029
175046
175040
175071
175118
175031
174948
174946
174955
174956
175012
175077
175089
175112
175027
175062
175058
175132
175147
175098
174998
175008
175036
175124
175122
175166
175156
175222
175156
175120
175201
175169
175133
175105
175104
175174
175157
175096
175137
175078
175086
175165
175259
175260
175156
175185
175234
175238
175218
175219
175089
175106
175013
175104
175200
175346
175368
175281
175202
175200
175278
175340
175362
175279
175218
175229
175242
175272
175389
175414
175386
175422
175437
175285
175264
175227
175314
175335
175337
175332
175264
175379
175390
175419
175403
175427
175411
175404
175376
175330
175413
175389
175395
175372
175333
175396
175360
175351
175429
175406
175401
175353
175484
175430
175345
175398
175427
175431
175418
175446
175468
175442
175537
175516
175553
175547
175479
175388
175341
175312
175419
175466
175552
175585
175598
175532
175462
175358
175400
175465
175456
175409
175400
175544
175511
175391
175453
175487
175513
175476
175408
175457
175544
175567
175522
175509
175469
175527
175628
175521
175492
175523
175467
175473
175452
175577
175609
175520
175547
175582
175623
175642
175564
175575
175564
175549
175526
175532
175591
175546
175587
175667
175697
175634
175552
175526
175568
175675
175607
175527
175588
175615
175541
175607
175625
175673
175731
175745
175821
175759
175703
175637
175616
175615
175564
175617
175634
175702
175642
175549
175648
175704
175682
175686
175603
175572
175546
175589
175641
175615
175692
175682
175709
175815
175682
175692
175780
175810
175849
175722
175718
175712
175750
175752
175671
175739
175777
175758
175761
175658
175672
175678
175602
175693
175703
175635
175658
175649
175694
175676
175726
175704
175704
175736
175681
175695
175682
175691
175612
175584
175631
175668
175724
175662
175631
175650
175680
175750
175860
175759
175701
175719
175794
175764
175749
175778
175763
175754
175778
175707
175676
175722
175710
175715
175747
175726
175737
175724
175761
175774
175803
175775
175730
175788
175708
175705
175766
175807
175726
175738
175814
175861
175883
175881
175772
175798
175867
175903
175810
175749
175726
175802
175868
175866
175806
175802
175778
175659
175708
175651
175730
175780
175773
175738
175647
175792
175837
175693
175684
175655
175739
175783
175800
175749
175668
175759
175841
175763
175679
175691
175786
175807
175803
175857
175905
175902
175865
175879
175931
176033
176077
175929
175794
175800
175766
175880
175920
175875
175816
175779
175724
175775
175927
175996
175829
175819
175773
175819
175963
175895
175875
175895
175874
175908
175882
175923
175982
175982
175991
175940
175937
175938
175968
175903
175869
175962
175843
175805
175796
175799
175835
175784
175805
175765
175712
175775
175810
175809
175851
175935
175894
175907
175868
176037
176132
176232
176279
176243
176235
176372
176392
176263
176232
176236
176201
176233
176233
176159
176052
176008
176090
176120
176067
176062
176026
176032
176072
176103
176183
176181
176181
176218
176112
176138
176144
176132
176171
176066
176017
175945
176075
176158
176015
175931
175997
176053
176064
176090
176273
176150
176159
176100
176072
176161
176121
176226
176247
176201
176125
176101
176231
176158
176087
176084
176052
176116
176151
176140
176132
176092
176167
176128
176101
176109
176157
176201
176138
176118
176204
176057
175994
176090
176074
176036
176050
176061
176032
176065
176059
176022
176128
176187
176223
176120
176082
176096
176031
176136
176120
176098
176156
176125
176086
176151
176117
176109
176252
176195
176169
176120
176158
176136
176228
176225
176137
176155
176197
176169
176155
176218
176213
176242
176204
176068
176003
176070
176118
176196
176172
176129
176178
176230
176166
176041
176041
176128
176154
176169
176151
176012
176114
176209
176218
176206
176245
176231
176162
176235
176232
176175
176146
176209
176276
176195
176191
176289
176292
176262
176285
176222
176257
176251
176237
176279
176165
176200
176325
176352
176287
176269
176336
176323
176318
176287
176219
176232
176312
176345
176230
176217
176322
176309
176293
176383
176449
176412
176399
176432
176486
176397
176341
176300
176368
176382
176298
176399
176491
176409
176317
176409
176419
176293
176354
176374
176447
176421
176464
176476
176508
176436
176391
176399
176428
176364
176342
176416
176431
176400
176352
176316
176332
176326
176352
176403
176438
176438
176456
176464
176304
176265
176289
176250
176336
176294
176172
176255
176333
176360
176372
176312
176298
176283
176223
176250
176161
176263
176331
176322
176237
176297
176408
176334
176275
176298
176261
176331
176270
176228
176228
176205
176272
176281
176233
176317
176325
176303
176325
176328
176285
176270
176320
176357
176391
176322
176311
176352
176347
176319
176268
176203
176299
176297
176293
176352
176231
176237
176353
176328
176334
176312
176287
176294
176230
176163
176202
176244
176313
176394
176339
176265
176330
176344
176238
176200
176228
176235
176287
176338
176323
176298
176306
176301
176238
176174
176138
176213
176207
176287
176280
176337
176298
176263
176305
176407
176329
176339
176429
176417
176261
176182
176297
176296
176287
176281
176209
176253
176367
176345
176356
176252
176324
176400
176369
176304
176314
176427
176426
176301
176250
176237
176265
176308
176216
176223
176234
176358
176334
176441
176397
176316
176274
176326
176330
176324
176339
176383
176326
176420
176459
176379
176356
176249
176290
176343
176354
176359
176317
176281
176256
176273
176339
176448
176411
176362
176362
176430
176382
176376
176333
176281
176298
176345
176355
176330
176375
176377
176402
176351
176311
176293
176436
176367
176297
176298
176311
176409
176405
176332
176261
176251
176380
176469
176488
176447
176278
176327
176392
176339
176367
176332
176420
176411
176391
176402
176303
176349
176380
176393
176360
176364
176429
176470
176416
176393
176432
176505
176495
176441
176442
176425
176561
176533
176453
176441
176343
176405
176383
176427
176394
176363
176433
176460
176413
176392
176515
176548
176483
176447
176463
176452
176472
176508
176521
176516
176603
176627
176571
176570
176620
176550
176578
176572
176518
176404
176429
176450
176473
176573
176499
176395
176441
176410
176465
176359
176238
176206
176267
176272
176362
176263
176361
176489
176504
176530
176598
176723
176805
176912
176780
176638
176687
176729
176780
176832
176844
176843
176787
176751
176775
176734
176734
176558
176586
176545
176522
176672
176545
176560
176616
176548
176573
176588
176676
176680
176644
176680
176653
176654
176680
176618
176616
176541
176496
176614
176598
176626
176573
176632
176706
176624
176610
176589
176548
176484
176464
176563
176644
176637
176696
176640
176657
176605
176591
176668
176595
176545
176536
176666
176623
176548
176587
176553
176557
176605
176572
176644
176618
176550
176620
176561
176576
176669
176742
176644
176526
176548
176575
176612
176589
176435
176499
176522
176449
176450
176459
176534
176551
176575
176453
176531
176564
176562
176588
176553
176581
176490
176460
176512
176524
176438
176545
176579
176536
176521
176448
176536
176515
176539
176521
176437
176496
176532
176485
176591
176486
176423
176395
176558
176630
176637
176580
176468
176424
176399
176357
176479
176497
176472
176450
176330
176315
176460
176518
176483
176471
176526
176532
176505
176456
176317
176364
176383
176490
176524
176488
176496
176512
176450
176382
176350
176383
176534
176554
176314
176352
176483
176453
176440
176519
176574
176476
176431
176432
176376
176368
176433
176470
176425
176379
176419
176417
176445
176454
176495
176451
176474
176493
176577
176532
176492
176567
176480
176526
176581
176595
176590
176632
176576
176438
176440
176584
176654
176598
176612
176495
176524
176537
176470
176573
176520
176427
176459
176482
176559
176561
176566
176540
176530
176509
176475
176472
176520
176530
176549
176577
176673
176502
176443
176545
176580
176599
176513
176484
176478
176656
177012
176983
176937
176930
176858
176977
176957
176914
176747
176744
176758
176822
176862
176779
176698
176810
176624
176643
176645
176675
176760
176781
176740
176721
176747
176790
176697
176663
176698
176731
176758
176751
176718
176654
176559
176656
176762
176756
176648
176496
176501
176634
176752
176765
176682
176648
176676
176657
176697
176663
176655
176627
176684
176736
176744
176758
176732
176695
176689
176666
176736
176715
176680
176638
176688
176730
176642
176495
176617
176669
176711
176686
176706
176713
176674
176624
176577
176609
176756
176647
176539
176568
176575
176594
176637
176611
176595
176674
176652
176631
176748
176786
176747
176682
176558
176534
176637
176662
176694
176652
176680
176699
176704
176672
176620
176676
176802
176731
176658
176648
176699
176677
176628
176700
176611
176707
176724
176730
176692
176684
176669
176655
176662
176791
176690
176607
176648
176727
176828
176781
176732
176723
176691
176654
176654
176733
176685
176633
176660
176614
176668
176712
176727
176747
176645
176662
176711
176772
176731
176592
176734
176767
176690
176697
176633
176667
176754
176799
176683
176607
176561
176590
176633
176624
176650
176698
176644
176629
176667
176666
176598
176604
176669
176622
176533
176640
176645
176627
176651
176599
176701
176688
176711
176727
176736
176790
176794
176707
176648
176631
176734
176742
176691
176705
176559
176688
176763
176691
176677
176643
176621
176611
176641
176590
176684
176679
176639
176598
176623
176588
176613
176679
176578
176649
176720
176654
176609
176589
176629
176673
176664
176602
176558
176532
176582
176626
176658
176837
176706
176656
176611
176677
176699
176755
176628
176474
176505
176539
176758
176660
176594
176647
176590
176700
176677
176636
176678
176677
176702
176677
176680
176746
176695
176778
176739
176708
176643
176651
176703
176626
176681
176680
176679
176796
176738
176780
176765
176814
176785
176620
176667
176711
176703
176639
176611
176635
176639
176653
176718
176702
176713
176606
176500
176512
176544
176583
176640
176560
176511
176469
176533
176489
176441
176461
176490
176532
176645
176712
176683
176622
176759
176800
176938
176998
177001
177074
177061
177014
177125
177121
177034
176897
176867
176924
176865
176853
176866
176825
176821
176773
176850
176784
176736
176693
176730
176746
176781
176753
176803
176722
176707
176765
176862
176831
176736
176818
176818
176843
176762
176722
176759
176742
176704
176754
176703
176746
176791
176791
176825
176733
176709
176784
176798
176844
176772
176789
176790
176814
176821
176837
176840
176910
176867
176801
176673
176697
176815
176816
176850
176804
176849
176765
176736
176666
176728
176788
176808
176753
176737
176701
176701
176752
176863
176853
176830
176853
176837
176837
176674
176559
176695
176803
176827
176767
176686
176719
176756
176781
176835
176845
176839
176734
176683
176825
176714
176688
176665
176714
176783
176756
176772
176769
176657
176642
176687
176771
176734
176682
176724
176691
176751
176788
176666
176661
176692
176701
176718
176705
176678
176607
176693
176714
176710
176790
176676
176661
176666
176722
176797
176687
176701
176694
176673
176717
176633
176684
176702
176671
176712
176666
176734
176690
176742
176777
176763
176723
176710
176684
176766
176697
176676
176682
176741
176785
176712
176655
176634
176697
176688
176602
176692
176824
176802
176730
176705
176692
176644
176657
176680
176660
176712
176741
176729
176776
176722
176809
176797
176740
176746
176706
176756
176776
176764
176786
176734
176817
176814
176842
176906
176872
176881
176832
176823
176756
176701
176682
176657
176769
176853
176781
176768
176719
176780
176766
176699
176785
176697
176671
176736
176775
176853
176900
176866
176795
176700
176826
176874
176781
176719
176707
176694
176682
176699
176744
176775
176801
176770
176706
176731
176747
176825
176801
176767
176734
176669
176706
176728
176760
176685
176606
176750
176718
176748
176781
176790
176815
176738
176644
176679
176622
176594
176696
176758
176683
176605
176644
176671
176594
176649
176586
176586
176647
176687
176718
176699
176693
176697
176711
176651
176626
176642
176686
176707
176746
176646
176665
176596
176590
176595
176593
176674
176664
176682
176674
176631
176710
176719
176622
176630
176697
176710
176655
176660
176643
176669
176709
176756
176772
176760
176587
176575
176680
176773
176698
176565
176618
176608
176613
176680
176670
176659
176653
176702
176709
176666
176706
176658
176639
176612
176590
176620
176647
176648
176707
176688
176652
176695
176745
176695
176617
176640
176680
176669
176779
176679
176631
176656
176725
176702
176582
176637
176746
176784
176754
176650
176691
176657
176668
176719
176638
176653
176762
176780
176750
176664
176599
176695
176702
176658
176631
176698
176681
176616
176661
176618
176649
176630
176676
176727
176668
176652
176602
176591
176618
176629
176716
176716
176713
176780
176777
176683
176718
176700
176605
176613
176729
176764
176706
176695
176724
176825
176743
176728
176689
176583
176654
176698
176745
176685
176594
176689
176669
176719
176639

[HeartVoice API 返回]
# HeartVoice 专业 API 返回的聚合指标（不返回原始波形分析数据）
# 与下方 [算法提取后的结构化特征] 对照可定位本地算法差异
平均心率:59
最低心率:58
最高心率:60
诊断:SNB
QRS宽度:80
P波宽度:96
PR间期:138
QT间期:373
QTc:371
房性早搏:0
室性早搏:0
信号质量:0.91
导联反接:true
是否异常:true

[算法提取后的结构化特征]
# 由 EcgFeatureExtractor.extract() + toPromptText() 在手机端重建
# 与手表端发给 DeepSeek 的提示词文本一致（DS 实际收到的数据）
# 注意: 用户 profile（年龄性别）未存入测量记录，手机端重建时为'未知'
#       助手如需年龄性别做医学判断，需用户单独提供

[用户属性]

[全局指标]
采样率:500Hz 时长:30.6s 总点数:15320
R波检测:20个 平均心率:43bpm 范围:42-47bpm
R波位置(样本索引):810,1633,1970,2100,2602,3671,4623,5255,5686,6142,6361,9085,9768,10036,10324,11255,12954,13810,14520,14621
RR间期序列(ms，[*]为偏离均值>20%的异常间期，多为早搏/误检):[1646*] [674*] 1004 [2138*] [1904*] 1264 [862*] [912*] [438*] 1366 [536*] [576*] [1862*] [1712*] 1420
RR差值序列(ms):-972,330,1134,-234,-640,-402,50,-474,928,-830,40,1286,-150,-292
SDNN:160.0ms RMSSD:164.2ms pNN50:100.0%
QRS宽度(本地估测,ms):48±6
PR间期(本地估测,ms):161±59
QT间期(本地估测,ms):421 QTc(Bazett):356ms QTc(Fridericia):376ms
R波平均振幅:0.27mV
信号质量:0.85 良好

[节律判别特征]
RR变异系数:0.437(高度不规律)
Poincaré散点形态:扇形(高度不规律，疑似房颤)
短-长RR配对数(早搏代偿):1个

[逐秒分段]
时段(s)  R波  振幅范围(mV)  峰峰值(mV)  最大斜率(mV/s)  RMS(mV)
0.0-1.0  0  -0.45~0.64  1.09  106.00  0.31
1.0-2.0  1  -0.45~0.51  0.96  132.00  0.20
2.0-3.0  0  -0.81~0.71  1.52  160.00  0.36  ← 本秒无R波(心率<60或代偿间隙)
3.0-4.0  2  -0.76~0.41  1.17  110.00  0.23
4.0-5.0  1  -0.52~0.40  0.92  146.00  0.21
5.0-6.0  1  -0.46~0.33  0.80  108.50  0.17
6.0-7.0  0  -0.72~0.63  1.34  149.50  0.36  ← 本秒无R波(心率<60或代偿间隙)
7.0-8.0  1  -0.37~0.48  0.85  136.00  0.17
8.0-9.0  0  -0.60~0.60  1.20  120.50  0.31  ← 本秒无R波(心率<60或代偿间隙)
9.0-10.0  1  -0.64~1.05  1.70  109.00  0.35
10.0-11.0  1  -0.69~1.52  2.22  117.00  0.49
11.0-12.0  1  -1.08~0.99  2.07  138.00  0.50
12.0-13.0  2  -0.96~0.84  1.80  129.00  0.45  ← 短RR+代偿间隙(早搏可能)
13.0-14.0  0  -0.39~0.36  0.75  99.50  0.12  ← 代偿间隙(配合前秒短RR)
14.0-15.0  0  -0.83~0.74  1.56  86.00  0.39  ← 本秒无R波(心率<60或代偿间隙)
15.0-16.0  0  -0.46~0.60  1.06  105.50  0.21  ← 本秒无R波(心率<60或代偿间隙)
16.0-17.0  0  -1.44~0.67  2.11  94.50  0.58  ← 本秒无R波(心率<60或代偿间隙)
17.0-18.0  0  -0.31~0.51  0.81  87.00  0.19  ← 本秒无R波(心率<60或代偿间隙)
18.0-19.0  1  -0.28~0.42  0.70  113.50  0.11
19.0-20.0  1  -0.33~0.53  0.86  115.00  0.14
20.0-21.0  2  -1.83~0.99  2.82  144.50  0.82  ← 短RR+代偿间隙(早搏可能)
21.0-22.0  0  -0.74~1.34  2.08  82.50  0.58  ← 代偿间隙(配合前秒短RR)
22.0-23.0  1  -0.66~0.70  1.36  111.00  0.37
23.0-24.0  0  -0.71~0.98  1.70  103.50  0.44  ← 本秒无R波(心率<60或代偿间隙)
24.0-25.0  0  -2.06~1.20  3.26  91.00  1.07  ← 本秒无R波(心率<60或代偿间隙)
25.0-26.0  1  -0.40~0.65  1.05  96.50  0.24
26.0-27.0  0  -0.75~0.72  1.47  102.00  0.34  ← 本秒无R波(心率<60或代偿间隙)
27.0-28.0  1  -0.75~0.68  1.44  91.50  0.32
28.0-29.0  0  -0.39~0.51  0.91  88.00  0.15  ← 本秒无R波(心率<60或代偿间隙)
29.0-30.0  2  -0.35~0.46  0.81  178.00  0.13
逐秒RMS:0.314,0.205,0.361,0.226,0.212,0.166,0.364,0.165,0.310,0.354,0.490,0.500,0.447,0.124,0.391,0.206,0.579,0.193,0.112,0.140,0.817,0.578,0.369,0.438,1.067,0.239,0.341,0.317,0.153,0.134

[AI 解读]
# DeepSeek 返回的原始 JSON（未清洗，可能含 markdown 代码块包裹）
本次测量未使用 AI 分析（分析方法非 ds_*）
