========== ECG 算法诊断包 ==========
测量时间: 2026-07-16 20:12:56
测量时间戳:1784203976053
采样率:500 Hz
数据点数:15320
时长:30.6 秒
分析方法:heartvoice

[原始 ECG 数据]
# 单位: mV×1000 整数（如 500 = 0.5mV，-1000 = -1.0mV）
# 采样率: 500 Hz，连续采样，无降采样无压缩
# 用途: 助手据此复现本地算法行为（基线漂移/噪声段/R波检测）
# 格式: 每行一个数值，行号=采样点索引（第1行=索引0，即 t=0.000s）
159072
159072
159101
159127
159142
159150
159216
159197
159201
159215
159118
159031
159096
159171
159184
159138
159070
159079
159160
159149
159061
159083
159148
159117
159190
159236
159161
159065
159067
159111
159122
159274
159251
159173
159172
159104
159044
159177
159339
159447
159499
159513
159381
159260
159193
159118
159236
159249
159221
159270
159263
159325
159277
159283
159388
159358
159391
159190
159163
159240
159194
159295
159303
159203
159168
159189
159316
159290
159326
159356
159274
159341
159288
159364
159395
159368
159315
159363
159398
159370
159349
159374
159382
159414
159294
159269
159181
159185
159360
159331
159328
159471
159522
159343
159310
159171
159240
159266
159233
159284
159312
159356
159342
159392
159383
159292
159316
159245
159252
159328
159302
159349
159417
159485
159482
159467
159422
159357
159249
159206
159270
159461
159426
159307
159383
159414
159463
159441
159351
159307
159294
159454
159538
159557
159529
159413
159411
159464
159423
159403
159412
159428
159549
159499
159450
159377
159420
159526
159593
159554
159453
159331
159323
159335
159360
159435
159546
159618
159564
159504
159449
159525
159502
159572
159457
159424
159499
159405
159352
159384
159525
159594
159463
159529
159535
159560
159526
159506
159584
159504
159336
159351
159415
159539
159734
159770
159665
159601
159665
159731
159598
159552
159637
159634
159675
159616
159542
159622
159476
159170
159157
159157
159107
159046
158977
158944
158984
158979
159075
159130
158997
159137
159196
159234
159293
159252
159376
159488
159463
159504
159545
159607
159540
159500
159602
159504
159522
159538
159497
159544
159552
159581
159460
159585
159596
159527
159581
159660
159519
159446
159399
159419
159579
159709
159629
159583
159694
159650
159421
159400
159441
159447
159512
159636
159756
159593
159487
159507
159517
159614
159617
159574
159606
159599
159587
159545
159635
159659
159694
159632
159468
159590
159564
159544
159632
159656
159697
159644
159740
159642
159543
159582
159589
159582
159669
159824
159792
159711
159686
159723
159750
159821
159817
159770
159768
159800
159847
159771
159708
159677
159645
159629
159816
159757
159758
159792
159831
159844
159780
159782
159669
159694
159757
159704
159780
159737
159759
159738
159651
159676
159610
159625
159633
159643
159657
159617
159632
159676
159576
159517
159591
159628
159514
159477
159437
159455
159599
159651
159581
159527
159547
159565
159558
159579
159607
159600
159559
159606
159592
159595
159607
159638
159589
159619
159663
159517
159543
159547
159501
159466
159605
159697
159667
159498
159486
159516
159547
159537
159548
159543
159523
159634
159579
159395
159444
159597
159729
159826
159693
159691
159627
159660
159633
159633
159695
159593
159601
159672
159653
159723
159774
159599
159673
159719
159768
159679
159669
159633
159581
159530
159537
159564
159567
159644
159607
159611
159717
159760
159794
159749
159629
159682
159725
159716
159631
159639
159710
159781
159766
159670
159463
159521
159558
159551
159561
159564
159677
159611
159576
159612
159639
159673
159686
159794
159841
159783
159755
159806
159739
159803
159739
159736
159653
159612
159588
159473
159432
159245
159040
158962
159112
159044
159053
159063
159034
159029
159216
159337
159328
159245
159240
159315
159418
159507
159538
159594
159567
159601
159683
159559
159636
159698
159631
159665
159615
159553
159592
159543
159502
159525
159607
159712
159658
159544
159525
159514
159526
159537
159580
159610
159548
159607
159539
159561
159652
159539
159499
159569
159513
159583
159541
159549
159554
159361
159417
159391
159501
159438
159480
159547
159546
159441
159382
159382
159331
159292
159401
159359
159483
159401
159361
159468
159540
159432
159353
159386
159454
159434
159303
159311
159372
159459
159484
159543
159477
159311
159386
159287
159432
159315
159159
159226
159316
159469
159485
159313
159432
159450
159364
159400
159403
159388
159378
159455
159520
159491
159414
159409
159384
159391
159348
159381
159461
159397
159280
159335
159323
159320
159390
159353
159294
159427
159341
159300
159300
159378
159402
159276
159170
159117
159164
159337
159256
159304
159279
159217
159193
159245
159354
159405
159419
159355
159283
159303
159281
159308
159337
159325
159298
159428
159342
159302
159158
159132
159254
159248
159310
159269
159300
159373
159242
159270
159311
159299
159218
159204
159190
159271
159319
159287
159267
159365
159344
159296
159328
159298
159390
159378
159395
159338
159281
159292
159320
159384
159431
159340
159408
159416
159476
159481
159397
159293
159195
159283
159392
159283
159253
159295
159338
159249
159263
159213
159176
159231
159314
159416
159574
159536
159427
159383
159366
159401
159287
159284
159328
159291
159319
159365
159317
159367
159332
159368
159419
159337
159303
159277
159381
159407
159406
159481
159515
159503
159515
159490
159432
159418
159507
159559
159599
159439
159303
159379
159391
159222
159060
158907
158901
159068
159024
158812
158724
158729
158718
158856
158912
159013
159061
159043
159104
159128
159191
159303
159331
159346
159382
159487
159575
159606
159562
159520
159390
159292
159192
159318
159533
159716
159723
159478
159518
159484
159344
159376
159421
159507
159520
159472
159459
159381
159398
159378
159404
159577
159638
159571
159571
159553
159573
159549
159538
159524
159399
159479
159492
159599
159605
159586
159625
159584
159618
159709
159598
159580
159581
159616
159617
159656
159624
159543
159676
159669
159609
159620
159604
159668
159624
159609
159709
159766
159821
159849
159739
159705
159685
159654
159661
159733
159821
159763
159674
159660
159722
159793
159789
159826
159766
159757
159696
159673
159753
159747
159634
159665
159753
159733
159672
159520
159508
159647
159681
159657
159633
159592
159598
159563
159500
159566
159578
159650
159590
159613
159686
159712
159666
159570
159557
159524
159548
159573
159578
159692
159735
159650
159541
159456
159455
159431
159483
159412
159448
159485
159533
159617
159570
159550
159553
159549
159526
159530
159540
159547
159521
159698
159603
159438
159447
159539
159580
159609
159655
159633
159553
159622
159506
159486
159624
159632
159616
159607
159606
159486
159415
159455
159493
159648
159722
159720
159728
159782
159831
159809
159674
159756
159792
159766
159813
159902
159846
159725
159756
159704
159687
159687
159641
159735
159649
159760
159893
159907
159973
159908
159761
159692
159823
159971
159936
159727
159742
159845
159811
159762
159734
159769
159753
159857
159902
159796
159854
159826
159880
159886
159816
159757
159746
159778
159838
159982
160097
160000
159925
159949
159848
159868
159950
160051
160151
160173
160165
160192
159938
159869
159843
159762
159642
159673
159590
159410
159493
159552
159470
159422
159384
159354
159457
159458
159410
159448
159696
159783
159791
159899
159883
159914
160026
160033
160131
160148
160006
159907
159976
160028
159995
160066
160124
160255
160184
160028
160096
160135
160049
160066
160188
160224
160147
160199
160167
160053
160075
160168
160317
160261
160123
160041
159958
160027
160152
160116
160267
160347
160421
160380
160294
160257
160317
160350
160320
160252
160284
160305
160230
160310
160240
160246
160351
160347
160478
160531
160496
160432
160307
160295
160269
160360
160340
160320
160378
160494
160497
160541
160509
160480
160451
160519
160656
160632
160646
160553
160570
160664
160671
160661
160653
160493
160492
160533
160651
160629
160648
160667
160654
160613
160648
160548
160577
160548
160442
160530
160705
160916
160856
160701
160607
160581
160597
160581
160561
160574
160719
160682
160841
160863
160688
160681
160775
160807
160696
160648
160721
160712
160681
160676
160641
160665
160683
160757
160737
160690
160729
160735
160657
160638
160635
160656
160735
160762
160862
160861
160796
160796
160769
160827
160879
160892
160914
160811
160701
160806
161009
160914
160911
160884
160773
160822
160845
160861
160790
160856
160946
161081
161089
161005
160935
160852
160893
160966
161029
160949
160919
160996
160993
161014
160984
161060
161123
161125
161125
161132
161131
161059
161087
161123
161009
161038
161063
161107
161128
161030
160994
161026
161230
161123
160977
160974
161034
161073
161111
161100
161093
161165
161122
161044
161030
161074
161134
161223
161241
161161
161202
161271
161313
161195
161033
161113
161060
161052
161006
161040
161134
161231
161208
161269
161326
161365
161290
161293
161274
161307
161368
161341
161323
161342
161226
161040
160860
160812
160746
160687
160629
160685
160680
160710
160784
160875
160920
160915
160925
160976
160961
161004
161261
161219
161269
161389
161402
161385
161419
161413
161310
161286
161278
161323
161407
161397
161468
161525
161456
161356
161310
161255
161321
161442
161410
161443
161408
161368
161346
161330
161408
161402
161280
161224
161245
161389
161545
161479
161518
161457
161483
161402
161414
161488
161463
161453
161361
161396
161434
161460
161434
161455
161414
161440
161563
161540
161433
161488
161495
161371
161414
161487
161511
161707
161677
161555
161561
161612
161655
161603
161565
161451
161569
161566
161557
161708
161875
161839
161724
161696
161718
161670
161713
161639
161582
161670
161787
161685
161597
161611
161611
161659
161636
161654
161547
161643
161686
161587
161649
161631
161691
161729
161500
161514
161537
161640
161807
161653
161585
161541
161456
161595
161605
161498
161598
161642
161593
161534
161504
161450
161471
161467
161501
161533
161511
161515
161506
161506
161583
161585
161522
161606
161561
161516
161407
161429
161637
161817
161809
161682
161782
161719
161616
161518
161529
161637
161619
161569
161627
161537
161487
161561
161698
161760
161688
161694
161635
161539
161570
161591
161651
161663
161584
161586
161685
161756
161755
161782
161735
161663
161677
161647
161618
161591
161515
161603
161639
161682
161696
161614
161647
161741
161657
161702
161586
161439
161471
161532
161672
161586
161569
161600
161638
161667
161611
161639
161684
161616
161572
161539
161504
161448
161412
161561
161434
161515
161577
161591
161595
161594
161533
161562
161451
161490
161465
161610
161600
161559
161472
161289
161476
161519
161507
161516
161601
161704
161767
161778
161762
161619
161657
161648
161484
161360
161342
161353
161291
161386
161295
161183
160986
160960
160887
160879
160831
160824
160868
161087
161221
161254
161208
161235
161312
161374
161381
161517
161545
161586
161559
161541
161562
161477
161546
161522
161442
161388
161474
161475
161545
161665
161656
161572
161513
161579
161491
161443
161443
161422
161472
161537
161551
161581
161606
161544
161425
161423
161508
161544
161507
161421
161423
161464
161598
161647
161536
161449
161453
161450
161478
161447
161458
161440
161454
161534
161492
161480
161418
161416
161499
161571
161604
161581
161556
161527
161427
161428
161446
161495
161513
161594
161576
161604
161592
161590
161542
161604
161557
161640
161508
161413
161385
161544
161609
161547
161447
161521
161567
161639
161670
161635
161529
161436
161425
161538
161584
161650
161606
161577
161540
161515
161515
161562
161476
161476
161488
161580
161516
161536
161582
161544
161564
161551
161516
161429
161336
161342
161381
161500
161566
161463
161487
161418
161456
161455
161405
161360
161383
161352
161309
161311
161354
161369
161359
161402
161336
161322
161396
161333
161375
161354
161353
161343
161319
161341
161282
161257
161243
161213
161299
161217
161309
161359
161314
161281
161116
161116
161276
161387
161476
161372
161274
161220
161231
161232
161327
161323
161392
161425
161340
161187
161201
161211
161216
161200
161297
161394
161344
161199
161149
161211
161387
161432
161455
161492
161261
161260
161303
161252
161192
161271
161397
161475
161408
161396
161205
161268
161330
161319
161381
161259
161265
161330
161313
161323
161275
161254
161202
161211
161245
161245
161389
161450
161245
161296
161350
161367
161465
161487
161218
161217
161316
161385
161232
161355
161457
161461
161405
161362
161456
161500
161556
161540
161503
161491
161454
161311
161177
161055
161020
160954
160973
160970
160818
160734
160780
160772
160882
160979
160954
160936
160903
161040
161083
161221
161286
161315
161254
161287
161295
161317
161412
161394
161395
161337
161363
161351
161318
161379
161380
161368
161376
161386
161411
161501
161423
161414
161476
161434
161359
161464
161468
161475
161525
161509
161438
161408
161390
161295
161292
161271
161323
161392
161540
161566
161463
161543
161433
161300
161354
161397
161445
161453
161479
161517
161508
161521
161406
161407
161482
161431
161514
161529
161497
161411
161357
161416
161453
161479
161398
161225
161356
161342
161348
161430
161389
161382
161447
161496
161450
161420
161493
161444
161433
161317
161353
161434
161521
161480
161469
161376
161322
161350
161360
161374
161272
161381
161459
161448
161443
161363
161355
161412
161504
161421
161355
161345
161235
161313
161227
161142
161107
161071
161157
161350
161408
161265
161290
161324
161333
161279
161306
161263
161149
161148
161192
161148
161307
161339
161397
161292
161295
161258
161180
161114
161090
161186
161223
161262
161354
161275
161267
161171
161148
161231
161175
161177
161205
161177
161190
161231
161300
161299
161356
161315
161315
161256
161123
161138
161037
161071
161117
161230
161220
161147
161183
161244
161228
161215
161153
161152
161238
161371
161446
161404
161211
161080
161008
161146
161206
161374
161361
161348
161324
161163
161198
161273
161287
161199
161244
161266
161267
161295
161361
161324
161255
161226
161257
161336
161289
161271
161322
161186
161209
161212
161184
161206
161195
161214
161253
161213
161260
161266
161229
161279
161311
161288
161201
161273
161205
161170
161179
161268
161366
161294
161167
161165
161250
161324
161330
161236
161269
161249
161343
161527
161464
161445
161413
161313
161260
161107
160977
160946
160851
160779
160702
160669
160654
160632
160667
160643
160683
160717
160751
160900
160976
160962
160947
160996
161030
161050
161103
161096
161068
161173
161228
161305
161303
161397
161264
161233
161182
161187
161174
161178
161185
161109
161143
161172
161231
161229
161147
161230
161292
161333
161182
161171
161193
161093
161053
161133
161335
161418
161323
161249
161227
161244
161246
161232
161217
161052
161197
161236
161225
161292
161263
161309
161245
161196
161244
161231
161211
161179
161210
161183
161204
161193
161201
161245
161256
161257
161331
161414
161400
161311
161239
161266
161326
161247
161395
161401
161261
161200
161264
161472
161327
161329
161328
161339
161312
161292
161294
161281
161137
161230
161182
161325
161290
161267
161303
161337
161402
161174
161077
161032
161006
161149
161202
161122
161110
161085
161141
161086
161098
161084
161074
161132
161165
161097
161100
161034
161087
161229
161064
161102
161099
161037
161018
160999
160988
161012
161153
161238
161080
161009
161008
160856
160885
160918
160976
160945
160913
160914
160948
160881
160930
160967
160985
160862
160920
160970
160998
161035
161006
160940
160883
160972
160999
160949
161006
161067
160932
160889
160930
160866
160860
160917
161062
161031
161039
160967
161076
161063
161002
160934
160941
160932
160881
160938
160967
160974
160938
160972
160975
161026
160920
160840
160889
160994
161088
161062
161124
161162
161120
161015
160984
160941
160904
160946
160927
160908
160991
160987
161064
161034
160911
160828
160836
160841
160976
161019
160991
160965
160979
160904
160828
160787
160866
160861
160852
160805
160857
160914
160842
160921
160832
160787
160964
161065
161039
161018
161015
160986
160913
161000
161040
161043
160957
160929
160878
160763
160766
160736
160697
160655
160509
160467
160449
160374
160393
160214
160129
160229
160303
160391
160450
160485
160536
160611
160657
160709
160814
160899
160700
160726
160712
160711
160657
160744
160827
160775
160823
160869
160810
160792
160784
160821
160738
160785
160762
160679
160808
160780
160758
160761
160758
160874
160896
160761
160780
160670
160713
160741
160775
160817
160723
160684
160730
160775
160770
160800
160766
160802
160789
160732
160803
160808
160774
160758
160784
160830
160881
160821
160807
160765
160686
160758
160793
160744
160772
160862
160835
160732
160796
160836
160815
160918
160838
160831
160879
160767
160820
160871
160820
160684
160685
160810
160920
160917
160880
160776
160796
160831
160780
160771
160781
160791
160748
160703
160723
160753
160816
160782
160713
160708
160723
160778
160741
160719
160763
160681
160817
160757
160675
160660
160622
160627
160614
160631
160739
160619
160573
160457
160553
160652
160595
160642
160603
160515
160437
160427
160606
160700
160680
160670
160665
160609
160545
160487
160410
160399
160541
160663
160742
160750
160648
160590
160549
160485
160460
160461
160516
160423
160417
160497
160436
160591
160730
160710
160569
160492
160479
160503
160475
160493
160451
160516
160484
160494
160518
160483
160598
160606
160529
160493
160627
160636
160577
160698
160591
160481
160460
160454
160467
160505
160529
160603
160587
160546
160610
160592
160526
160399
160470
160560
160471
160550
160667
160628
160586
160565
160584
160574
160562
160520
160590
160648
160580
160466
160547
160657
160581
160578
160643
160558
160492
160522
160541
160530
160506
160484
160623
160569
160526
160474
160368
160438
160525
160486
160486
160507
160475
160507
160549
160679
160758
160786
160825
160539
160552
160658
160658
160491
160510
160466
160387
160430
160389
160338
160142
160082
160054
159921
159915
159841
159973
160025
160045
160098
160077
160055
160183
160297
160403
160501
160488
160347
160219
160274
160513
160516
160477
160432
160449
160464
160385
160343
160393
160448
160448
160526
160479
160477
160488
160534
160523
160514
160614
160616
160530
160471
160458
160398
160365
160334
160292
160417
160467
160326
160363
160435
160511
160504
160470
160434
160447
160475
160431
160462
160400
160371
160475
160494
160465
160511
160534
160584
160471
160421
160361
160376
160445
160609
160740
160668
160557
160604
160523
160479
160552
160433
160520
160453
160561
160567
160478
160503
160560
160490
160415
160471
160560
160471
160438
160427
160426
160567
160556
160497
160436
160399
160496
160618
160654
160605
160573
160555
160569
160556
160516
160403
160466
160517
160525
160492
160479
160578
160488
160509
160458
160426
160455
160333
160339
160372
160331
160305
160444
160530
160545
160379
160448
160502
160498
160452
160443
160485
160449
160535
160494
160373
160390
160372
160426
160501
160388
160400
160403
160554
160629
160553
160550
160474
160462
160407
160330
160300
160335
160351
160357
160281
160553
160651
160526
160449
160436
160441
160411
160389
160409
160375
160409
160460
160486
160481
160304
160399
160418
160394
160306
160334
160442
160440
160363
160312
160372
160332
160417
160432
160362
160232
160243
160335
160331
160290
160353
160358
160240
160339
160431
160295
160335
160306
160212
160283
160296
160338
160334
160194
160173
160240
160264
160343
160302
160243
160173
160193
160238
160328
160312
160296
160356
160274
160234
160150
160169
160166
160198
160208
160178
160146
160197
160302
160417
160343
160198
160173
160130
160251
160277
160223
160213
160259
160352
160375
160414
160448
160389
160329
160281
160244
160196
160195
159987
159816
159825
159889
159814
159659
159648
159567
159596
159644
159667
159698
159719
159850
159933
159940
159960
160040
160167
160252
160178
160144
160199
160375
160314
160375
160268
160138
160129
160120
160141
160191
160208
160256
160291
160249
160204
160196
160232
160211
160212
160247
160214
160202
160174
160150
160301
160201
160141
160087
160186
160338
160236
160320
160404
160384
160332
160307
160203
160186
160335
160424
160391
160288
160252
160244
160347
160316
160352
160273
160192
160116
160110
160178
160220
160320
160217
160214
160274
160193
160223
160286
160314
160353
160354
160234
160227
160309
160339
160263
160325
160317
160330
160437
160404
160403
160322
160308
160277
160369
160466
160465
160305
160306
160356
160160
160202
160248
160239
160252
160216
160156
160199
160417
160317
160235
160185
160108
160161
160187
160221
160330
160213
160272
160250
160126
160143
160193
160246
160081
160017
160194
160241
160214
160133
160163
160214
160129
160202
160138
160075
160152
160006
160011
160108
160185
160118
160170
160246
160264
160223
160238
160079
160089
160127
160064
160084
160126
160223
160210
160184
160208
160057
160118
160234
160252
160238
160114
160116
160216
160123
160045
160073
160145
160298
160257
160228
160162
160154
160121
160137
160158
160312
160362
160262
160207
160220
160216
160213
160208
160020
160088
160172
160277
160273
160240
160139
160017
160087
160210
160150
160154
160096
160310
160328
160135
160099
160094
160051
160167
160223
160230
160104
160197
160238
160254
160280
160204
160184
160081
160069
160130
160140
160058
160035
160023
160140
160181
160242
160219
160135
160296
160204
160192
160190
160266
160178
160077
160138
160099
160006
160213
160330
160223
160286
160368
160455
160436
160425
160274
160313
160323
160226
160117
160143
160156
160258
160183
159843
159769
159821
159953
159798
159711
159567
159588
159594
159678
159748
159848
159873
159873
159889
159962
160030
160073
160155
160153
160190
160159
160150
160155
160223
160208
160309
160288
160137
160231
160345
160394
160300
160086
160161
160198
160270
160317
160285
160359
160415
160322
160349
160263
160187
160332
160387
160320
160263
160318
160339
160276
160288
160370
160291
160339
160305
160337
160398
160392
160370
160317
160346
160251
160288
160364
160487
160401
160406
160386
160390
160397
160470
160378
160282
160406
160452
160404
160448
160449
160513
160510
160534
160551
160467
160446
160435
160514
160533
160484
160513
160627
160677
160606
160505
160521
160524
160549
160666
160591
160430
160475
160462
160543
160584
160558
160564
160623
160570
160597
160497
160450
160421
160391
160460
160486
160452
160465
160526
160563
160511
160474
160367
160363
160430
160393
160390
160430
160507
160545
160537
160504
160443
160332
160493
160496
160394
160351
160422
160381
160372
160324
160443
160543
160423
160459
160501
160435
160479
160462
160489
160468
160431
160458
160446
160492
160517
160687
160746
160556
160500
160419
160329
160320
160399
160465
160483
160578
160537
160539
160650
160582
160480
160470
160496
160586
160517
160450
160529
160606
160610
160566
160495
160438
160400
160427
160468
160584
160624
160640
160660
160559
160658
160587
160592
160761
160746
160732
160747
160657
160616
160648
160684
160760
160676
160597
160658
160881
160912
160796
160728
160693
160752
160727
160623
160581
160603
160481
160497
160513
160637
160750
160741
160736
160730
160664
160747
160760
160784
160649
160661
160684
160606
160677
160608
160551
160585
160735
160807
160755
160784
160815
160728
160769
160771
160790
160939
160935
160893
160790
160767
160824
160854
160884
160799
160806
160827
160835
160640
160495
160372
160248
160268
160236
160122
160137
160231
160263
160319
160232
160312
160389
160496
160531
160544
160539
160632
160857
160873
160836
160784
160755
160865
160883
160844
160886
160929
160884
160852
160891
160905
160887
160767
160837
160808
160788
160866
160904
160889
160871
160845
160908
160878
160858
160922
160969
160909
160846
160799
160816
160935
160964
160927
160959
160912
160895
161002
160933
160932
160832
160890
160920
160954
160978
160929
160912
160956
160993
160989
161019
161115
161124
161041
161026
160967
161100
161080
161018
161023
160971
160990
160991
161142
161156
161043
161048
161084
161133
161209
161138
161081
161107
161093
161165
161115
161054
160998
161109
161159
161145
161127
161072
161110
161022
160994
161065
161135
161079
161183
161150
161014
161142
161123
161043
160993
161036
161141
161112
160981
160994
161083
161026
160936
161021
161105
161179
161191
161101
160952
160993
161081
161081
161065
161103
161048
161011
160993
161065
161041
160927
161070
161134
161144
161060
160870
160854
160982
161089
161119
161044
161063
161138
161060
160990
160989
161027
161107
161080
161134
161103
161041
160979
161087
161190
161103
161072
161140
161119
161051
161079
161067
161052
161124
161154
161066
161096
161086
161022
161084
161048
161017
161149
161209
161185
160998
161034
161122
161206
161122
161041
161073
161117
161140
161138
161157
161005
161083
161080
161055
161095
161194
161236
161332
161226
161126
161136
161158
161185
161160
161047
160908
161076
161052
161117
161096
161072
161134
161073
161161
161119
161277
161273
161084
161049
161009
160971
161128
161102
161088
161048
161041
160907
160903
161011
161070
161229
161200
161173
161092
161018
161043
161056
161054
161081
161019
161094
161213
161320
161199
161070
161101
161245
161398
161360
161247
161124
160975
160885
160730
160586
160573
160561
160535
160536
160482
160481
160551
160479
160498
160508
160676
160891
160880
160873
160875
160945
160953
161017
161045
161072
161040
161051
161041
161014
161018
161001
160987
161087
161073
161041
161083
161093
161072
161081
160895
160922
161039
161000
161066
161066
161025
160964
160960
161071
161022
160981
161005
160956
161018
161031
161172
161023
160950
160968
160929
160962
160956
160982
161034
161043
161107
161096
161134
161195
161079
160961
160994
160957
160983
161116
161208
161170
161054
161034
160981
161045
161069
161190
161201
161160
161214
161188
161052
161038
160976
161059
161166
161082
161138
161046
161127
161103
161176
161212
161142
161109
161163
161159
161096
161056
161144
161132
161052
160997
160959
160956
160962
160957
160961
161091
161035
161105
161124
161120
161092
161022
161049
160968
160969
160897
160906
160864
160875
160999
160999
161118
161138
161070
161056
160955
161004
160993
160940
160943
160848
160861
160878
160947
160964
160969
161070
161133
161031
160887
160827
160805
160751
160828
160960
160973
160935
160921
160979
160942
160866
160910
160950
160915
160901
160966
161034
161018
160985
160946
160874
160887
160935
160974
160977
161128
161133
161101
161024
161008
160985
160969
161122
161072
160973
161020
161048
160985
161019
161020
161030
161082
161056
160924
160867
160922
161020
160998
160940
160833
160842
160980
161056
161125
161103
161086
161062
161148
161125
161137
161031
161095
161157
161142
161034
160982
161044
160951
160931
160954
160977
160982
161043
161109
161120
161034
160895
160903
161038
160963
160827
160823
160890
160939
160900
160964
160991
160959
160989
160898
160838
160941
161001
160954
160897
160897
160901
160848
160900
160963
160963
160926
160952
161031
161048
161084
161141
161072
160970
161025
161043
161026
160951
160716
160590
160487
160359
160280
160330
160335
160405
160458
160375
160416
160454
160454
160589
160721
160629
160505
160543
160743
160869
160875
160936
160895
160877
160802
160760
160725
160711
160880
160945
160867
160944
160770
160764
160872
160865
160879
160798
160847
160920
160819
160851
160659
160635
160726
160928
160927
160815
160780
160838
160867
160932
160897
160819
160828
160868
160948
160902
160818
160827
160806
160840
160879
160918
160875
160817
160897
160823
160906
160859
160965
160923
160739
160703
160729
160863
160944
160992
160967
160865
160747
160749
160872
160961
161001
160998
160987
160877
160815
160821
160891
160961
160892
161001
160933
160873
160971
160976
160948
160977
161002
161006
160876
160932
160851
160864
160708
160658
160793
160820
160848
160846
160838
160876
160864
160951
160955
160852
160749
160745
160785
160848
160861
160758
160635
160705
160774
160766
160878
160921
160858
160852
160848
160840
160837
160697
160563
160639
160742
160859
160886
160854
160774
160780
160770
160669
160593
160644
160759
160836
160847
160745
160792
160882
160840
160778
160708
160646
160695
160683
160649
160590
160640
160757
160837
160767
160834
160780
160815
160868
160765
160810
160717
160703
160612
160618
160672
160695
160702
160757
160749
160739
160815
160915
160824
160896
160802
160631
160659
160683
160734
160753
160719
160713
160774
160838
160889
160905
160693
160758
160848
160805
160840
160806
160785
160823
160823
160778
160780
160792
160820
160861
160758
160809
160919
160850
160779
160792
160790
160681
160792
160934
160846
160758
160668
160639
160820
160915
160887
160876
160870
160918
160909
160865
160838
160798
160706
160628
160753
160880
160946
160883
160770
160728
160728
160800
160832
160823
160945
161022
160931
160929
160950
160918
161067
161121
161088
161055
161021
160900
160866
160961
160877
160806
160704
160693
160534
160464
160367
160250
160308
160426
160411
160431
160493
160441
160536
160641
160518
160602
160802
160890
160922
160905
160846
160902
160886
160933
160958
161049
160978
160905
160938
160907
160874
160883
160852
160852
160922
161039
161101
160968
160882
160911
160983
160980
161070
160960
160948
161000
161032
160977
160917
160983
161034
161087
161062
161034
161093
161151
161109
160945
160883
160967
161125
161124
161150
161236
161134
161022
161100
161129
161099
161112
161151
161101
161143
161124
161156
161124
161087
161153
161105
161142
161183
161213
161262
161199
161194
161204
161221
161224
161209
161173
161226
161177
161158
161227
161460
161384
161334
161356
161224
161185
161194
161130
161127
161088
161182
161329
161270
161274
161350
161365
161240
161275
161186
161154
161186
161254
161280
161338
161237
161289
161269
161202
161164
161115
161103
161159
161151
161209
161174
161182
161146
161196
161221
161157
161118
161133
161114
161331
161348
161380
161301
161254
161276
161356
161340
161290
161224
161166
161167
161154
161227
161103
161038
161156
161343
161524
161433
161336
161295
161300
161264
161323
161371
161387
161431
161397
161486
161436
161318
161279
161397
161402
161358
161318
161430
161447
161470
161577
161503
161460
161594
161536
161425
161357
161329
161331
161283
161376
161508
161514
161496
161473
161609
161604
161590
161618
161624
161609
161524
161556
161560
161532
161463
161577
161616
161638
161842
161895
161702
161640
161554
161580
161615
161556
161711
161768
161700
161646
161698
161657
161646
161615
161647
161682
161729
161750
161765
161804
161750
161746
161799
161724
161753
161705
161675
161536
161470
161632
161624
161783
161792
161715
161643
161751
161699
161732
161768
161734
161661
161609
161690
161800
161805
161794
161863
161955
161840
161825
161783
161957
162090
162088
162033
161958
161855
161771
161701
161657
161578
161465
161416
161362
161113
161079
161291
161472
161347
161278
161304
161513
161549
161555
161639
161665
161742
161863
161908
161887
161710
161764
161936
161956
161963
161873
161830
161772
161855
161874
161861
161982
162040
161951
161922
161902
161966
162011
161981
161924
161883
162000
162037
162008
161975
161928
161996
161984
162047
162047
162001
162109
162139
162154
162078
162031
162047
161996
161981
162000
162082
162123
162207
162279
162245
162219
162176
162096
162055
161994
162028
162071
162128
162068
162092
162228
162314
162342
162381
162220
162168
162186
162218
162122
162161
162131
162292
162403
162401
162395
162266
162260
162270
162266
162255
162228
162218
162206
162227
162220
162171
162287
162244
162248
162274
162172
162227
162213
162341
162312
162209
162171
162218
162341
162226
162179
162239
162216
162200
162193
162106
162178
162110
162071
162058
162093
162118
162221
162267
162256
162249
162215
162168
162147
162210
162201
162202
162164
162224
162332
162350
162323
162319
162276
162209
162176
162212
162183
162194
162171
162249
162374
162401
162302
162051
162019
162082
162120
162029
162176
162231
162290
162344
162282
162332
162252
162224
162101
162160
162261
162340
162315
162295
162274
162247
162209
162313
162325
162353
162319
162218
162297
162329
162388
162354
162304
162340
162430
162311
162258
162230
162299
162346
162306
162428
162455
162377
162279
162281
162152
162184
162384
162410
162406
162436
162411
162463
162477
162541
162543
162384
162280
162245
162296
162314
162345
162358
162355
162352
162346
162404
162448
162406
162431
162473
162456
162485
162517
162467
162418
162310
162356
162561
162607
162540
162408
162373
162484
162426
162342
162343
162440
162377
162349
162437
162342
162380
162307
162367
162481
162460
162406
162452
162547
162572
162468
162444
162405
162349
162403
162521
162624
162720
162680
162642
162510
162437
162444
162306
162184
161936
161939
161984
161964
161948
161880
161862
161915
161963
161897
161857
161947
161944
162003
162234
162119
162180
162328
162417
162390
162351
162274
162249
162285
162436
162564
162503
162345
162366
162406
162277
162271
162164
162231
162330
162270
162306
162484
162473
162318
162265
162280
162302
162363
162251
162222
162274
162305
162308
162360
162329
162400
162399
162325
162298
162304
162325
162163
162092
162269
162300
162176
162128
162218
162269
162340
162298
162249
162395
162317
162285
162359
162332
162251
162222
162232
162231
162264
162407
162441
162369
162214
162168
162169
162296
162290
162297
162246
162204
162284
162247
162268
162289
162369
162317
162365
162244
162225
162207
162194
162098
162093
162223
162289
162359
162377
162337
162303
162296
162273
162148
162086
162114
162096
162101
162024
162135
162260
162156
162172
162261
162229
162134
162150
162137
162120
162153
162028
161956
161949
161989
162045
162197
162150
162072
161987
161944
161962
162032
162041
162073
162109
162065
162082
162119
162066
161892
161849
161907
162064
161983
162079
162055
161949
161853
161891
161946
161983
161973
161989
162026
162034
162034
161917
161915
162014
161994
161995
162061
162097
161966
161890
161936
161872
161914
161942
162009
162082
162163
162095
162093
162036
162070
162060
162054
161944
162064
161987
161923
161913
161909
161884
161989
162070
162032
161986
161989
162004
162061
162007
161929
161941
161936
161925
161974
162048
162011
162083
162039
162095
162110
162073
161992
162016
162047
161959
161876
161983
161988
162011
161913
162065
162034
161945
161903
161826
161839
161875
161850
161866
161993
162022
161875
161886
161889
161882
161887
161888
161806
161872
161819
161880
161942
161922
161868
161840
162054
161953
161745
161808
161724
161708
161836
161872
161951
161903
162058
162039
161976
162027
162019
161990
161850
161822
161866
161831
161850
161854
161758
161597
161356
161291
161247
161266
161249
161294
161276
161176
161266
161331
161379
161482
161513
161499
161487
161587
161781
161896
161760
161724
161724
161709
161714
161735
161794
161685
161657
161859
161856
161851
161785
161822
161869
161824
161794
161661
161608
161671
161683
161788
161821
161733
161689
161721
161903
161850
161822
161765
161730
161730
161744
161792
161867
161903
161884
161815
161723
161610
161737
161759
161649
161620
161550
161641
161776
161855
161914
161705
161727
161763
161642
161725
161660
161648
161665
161705
161718
161701
161729
161672
161468
161495
161613
161682
161673
161568
161564
161561
161617
161583
161531
161475
161456
161488
161547
161560
161577
161592
161443
161361
161402
161452
161459
161394
161489
161575
161359
161302
161426
161587
161476
161285
161405
161474
161513
161371
161364
161401
161342
161378
161249
161176
161165
161231
161141
161174
161231
161233
161373
161374
161263
161171
161157
161330
161370
161404
161287
161234
161301
161230
161151
161198
161199
161211
161266
161160
161136
161226
161240
161254
161223
161163
161161
161111
161199
161217
161155
161185
161118
161092
161069
161025
161203
161229
161177
161174
161086
161157
161042
161005
161194
161344
161234
161228
161201
161037
161067
161062
161181
161105
160986
161021
161069
161158
161284
161156
161098
161027
161044
161047
160985
161033
161052
161085
161166
161225
161062
161082
161056
161022
160937
160977
160983
161010
160984
161002
161043
161089
161107
161027
161033
161060
160929
160945
161027
160945
161141
161191
161073
161016
160949
160975
160980
161029
161150
161018
161039
161013
160933
160910
160878
160926
160998
161085
160963
160878
160927
160904
160882
160818
160835
160848
160881
160973
161039
160923
160891
160885
160878
160932
160901
160848
160928
161008
160979
160881
160964
161068
160982
160967
160959
160983
161137
161156
161174
161071
161057
160985
160886
160813
160699
160579
160467
160482
160419
160303
160321
160429
160378
160354
160434
160511
160432
160502
160608
160704
160753
160720
160662
160615
160685
160951
160958
160972
160953
160843
160834
160801
160839
160839
160711
160777
160869
160862
160799
160825
160835
160739
160716
160776
160908
160969
160873
160816
160674
160869
160924
160876
160841
160837
160746
160736
160811
160845
160762
160742
160855
160837
160813
160788
160728
160764
160753
160721
160751
160667
160728
160698
160672
160798
160857
160832
160808
160795
160802
160756
160792
160792
160872
160864
160918
160807
160781
160845
160904
160815
160848
160828
160864
160936
160934
160947
160854
160735
160780
160714
160762
160842
160756
160808
160852
160867
160794
160789
160702
160713
160755
160689
160731
160696
160726
160767
160852
160887
160749
160632
160699
160685
160813
160832
160786
160720
160599
160572
160605
160610
160713
160766
160651
160623
160738
160840
160691
160697
160726
160775
160837
160681
160698
160606
160490
160543
160567
160639
160601
160559
160564
160571
160638
160693
160623
160765
160713
160616
160519
160507
160708
160854
160609
160590
160613
160613
160609
160566
160634
160716
160666
160663
160675
160693
160666
160641
160605
160629
160652
160651
160638
160575
160615
160667
160626
160599
160642
160641
160547
160395
160422
160479
160530
160609
160699
160692
160644
160550
160557
160464
160536
160606
160483
160458
160503
160578
160666
160568
160468
160517
160564
160480
160425
160433
160518
160621
160671
160695
160697
160472
160490
160463
160418
160457
160484
160523
160558
160629
160519
160519
160555
160441
160456
160486
160453
160488
160494
160398
160463
160484
160541
160533
160562
160550
160505
160573
160588
160616
160534
160513
160459
160339
160234
160376
160414
160453
160617
160558
160497
160374
160409
160516
160561
160602
160503
160489
160693
160799
160829
160716
160715
160603
160413
160493
160351
160333
160346
160283
160213
160172
160086
159930
159945
159887
159761
159823
159960
160012
160047
160068
160181
160287
160308
160343
160389
160483
160531
160566
160405
160432
160540
160489
160474
160508
160491
160500
160498
160440
160375
160393
160507
160514
160574
160458
160415
160477
160505
160390
160402
160434
160404
160362
160407
160610
160545
160610
160644
160532
160470
160448
160425
160398
160340
160312
160322
160510
160653
160594
160503
160508
160422
160342
160427
160479
160421
160503
160495
160488
160485
160569
160532
160466
160414
160382
160346
160350
160549
160642
160573
160485
160495
160569
160640
160547
160519
160491
160359
160380
160518
160510
160536
160460
160442
160538
160526
160519
160485
160475
160406
160403
160439
160523
160441
160415
160398
160445
160446
160491
160590
160534
160487
160464
160383
160314
160342
160457
160524
160544
160526
160408
160497
160584
160416
160360
160260
160288
160502
160391
160273
160258
160310
160321
160413
160389
160311
160356
160347
160388
160334
160270
160309
160334
160365
160443
160417
160372
160366
160363
160379
160382
160464
160495
160398
160401
160340
160246
160310
160289
160264
160247
160265
160334
160417
160368
160220
160282
160325
160442
160429
160280
160216
160358
160316
160309
160245
160195
160250
160373
160373
160484
160523
160462
160287
160285
160418
160449
160404
160160
160274
160296
160265
160343
160372
160382
160403
160464
160444
160376
160301
160205
160316
160409
160330
160311
160275
160271
160326
160348
160398
160455
160419
160412
160268
160149
160240
160327
160417
160389
160266
160188
160181
160236
160342
160451
160432
160545
160392
160366
160250
160161
160261
160217
160132
160247
160232
160291
160282
160282
160376
160351
160361
160247
160278
160269
160266
160389
160448
160256
160260
160255
160246
160321
160302
160331
160289
160318
160479
160506
160527
160472
160465
160528
160580
160499
160377
160494
160492
160449
160514
160364
160228
160152
160091
159990
159825
159802
159848
159780
159736
159783
159776
159854
159973
160001
160011
160205
160289
160235
160114
160049
160226
160373
160411
160274
160202
160192
160269
160318
160224
160120
160207
160165
160085
160161
160038
160068
160172
160226
160246
160166
160165
160247
160116
159966
159897
159981
160190
160266
160169
160111
160099
160087
160138
160218
160082
159980
159828
159834
159992
159978
160042
160103
160026
159969
159918
159941
159922
159979
160093
159858
159874
159895
159950
159972
159905
159824
159848
159944
159974
159935
160019
159835
159897
159938
159962
160055
160090
160135
160017
159874
159859
159880
159929
159822
159815
159790
159964
160047
160041
159914
159878
159852
159899
159925
159862
159933
159977
159943
159923
159857
159851
159869
159913
159888
159754
159755
159772
159886
159900
159858
159875
159846
159824
159772
159721
159807
159802
159798
159692
159545
159604
159766
159893
159949
159905
159860
159840
159764
159768
159781
159742
159814
159779
159791
159768
159782
159746
159796
159739
159675
159682
159732
159853
159841
159794
159838
159925
159914
159827
159672
159726
159764
159701
159731
159792
159815
159857
159850
159939
159871
159862
159838
159697
159687
159601
159605
159576
159661
159680
159669
159715
159832
159867
159760
159730
159815
159811
159774
159710
159643
159636
159615
159701
159749
159679
159723
159809
159740
159745
159636
159737
159839
159753
159634
159657
159641
159681
159772
159691
159669
159690
159782
159711
159769
159717
159545
159574
159691
159670
159584
159658
159661
159737
159673
159670
159828
159669
159679
159688
159564
159602
159629
159661
159609
159535
159631
159572
159548
159688
159674
159669
159667
159647
159536
159502
159553
159514
159583
159611
159604
159689
159695
159581
159556
159587
159716
159695
159661
159639
159589
159654
159579
159616
159573
159531
159638
159678
159719
159782
159818
159866
159862
159775
159741
159524
159429
159319
159224
159169
158993
158958
159010
159058
159081
159200
159232
159105
159234
159240
159217
159269
159308
159288
159403
159494
159610
159730
159740
159745
159610
159499
159563
159558
159507
159479
159492
159649
159630
159632
159630
159619
159551
159465
159531
159448
159559
159664
159707
159616
159574
159612
159603
159662
159637
159587
159580
159545
159545
159575
159568
159509
159614
159684
159642
159524
159539
159539
159696
159793
159629
159655
159595
159591
159630
159623
159584
159508
159524
159499
159566
159687
159638
159644
159713
159695
159638
159702
159719
159687
159599
159692
159618
159468
159508
159591
159589
159612
159698
159864
159797
159729
159572
159546
159624
159617
159804
159770
159710
159647
159518
159491
159418
159408
159418
159566
159780
159676
159609
159596
159539
159417
159520
159463
159497
159474
159412
159452
159461
159574
159565
159587
159580
159560
159568
159502
159450
159447
159445
159492
159378
159455
159402
159365
159328
159436
159615
159698
159728
159641
159469
159581
159543
159406
159367
159272
159373
159439
159425
159502
159588
159601
159534
159454
159455
159462
159480
159397
159337
159370
159346
159333
159384
159527
159555
159473
159445
159468
159584
159682
159623
159456
159413
159503
159410
159303
159294
159436
159418
159397
159525
159575
159583
159578
159569
159589
159562
159544
159488
159346
159100
159175
159245
159285
159441
159419
159526
159412
159467
159540
159519
159440
159345
159393
159381
159410
159453
159440
159341
159339
159384
159434
159425
159414
159439
159463
159476
159382
159323
159370
159434
159464
159420
159486
159452
159326
159356
159382
159382
159239
159220
159292
159298
159255
159312
159376
159321
159335
159356
159378
159201
159172
159142
159233
159307
159294
159428
159373
159285
159276
159323
159337
159296
159258
159315
159368
159303
159354
159531
159468
159349
159326
159353
159433
159480
159320
159292
159316
159470
159400
159149
159092
158918
158769
158733
158658
158698
158680
158725
158870
158927
158988
159017
158970
158987
158905
159046
159187
159277
159282
159238
159213
159244
159228
159248
159260
159150
159169
159316
159414
159378
159457
159408
159352
159255
159197
159162
159205
159220
159186
159219
159292
159258
159281
159282
159240
159324
159319
159152
159209
159093
159231
159332
159370
159331
159265
159257
159225
159244
159228
159262
159248
159276
159276
159237
159222
159329
159342
159257
159167
159117
159178
159093
159133
159232
159320
159426
159382
159341
159397
159371
159222
159251
159357
159419
159322
159386
159233
159274
159312
159319
159306
159270
159222
159169
159063
159108
159191
159289
159322
159379
159355
159172
159163
159217
159100
159016
159047
159193
159267
159253
159263
159260
159191
159161
159150
159167
159214
159235
159185
159126
159131
159122
159263
159174
159132
159151
159203
159249
159148
159088
159156
159167
159089
158947
158876
158997
159152
159234
158998
158953
159061
159107
159181
159167
159162
159251
159300
159197
159059
159045
159091
159141
159172
159150
159154
159172
159148
159168
159152
159089
159151
159175
159139
159114
159135
159198
159191
159161
159113
159011
159027
159082
159243
159218
159150
159076
159025
159045
159186
159125
159201
159276
159183
159023
158924
159037
159023
159271
159267
159132
159199
159273
159212
159117
159089
159072
159009
159094
159239
159357
159378
159378
159284
159212
159221
159246
159320
159257
159233
159245
159266
159242
159308
159259
159344
159457
159395
159274
159237
159224
159279
159314
159288
159382
159327
159249
159229
159260
159206
159131
159149
159245
159348
159419
159356
159421
159385
159310
159184
159203
159362
159322
159272
159345
159404
159399
159390
159312
159384
159434
159451
159362
159367
159306
159262
159271
159368
159540
159500
159478
159491
159406
159446
159432
159490
159542
159546
159554
159496
159446
159500
159490
159573
159534
159451
159335
159257
159097
158878
158753
158759
158750
158715
158766
158888
159065
159253
159253
159011
158967
159126
159204
159242
159281
159253
159320
159271
159320
159458
159392
159377
159458
159406
159436
159362
159394
159409
159379
159425
159410
159321
159472
159524
159416
159374
159404
159294
159355
159454
159467
159469
159414
159403
159344
159362
159423
159399
159462
159531
159470
159451
159437
159484
159443
159405
159489
159428
159488
159566
159497
159522
159461
159412
159537
159650
159504
159531
159450
159413
159435
159590
159648
159578
159496
159461
159478
159505
159534
159554
159560
159602
159532
159497
159518
159616
159538
159514
159575
159601
159530
159578
159636
159655
159581
159512
159525
159550
159577
159555
159479
159494
159583
159708
159647
159506
159530
159543
159630
159670
159554
159493
159425
159391
159578
159594
159688
159607
159544
159580
159518
159508
159562
159548
159606
159603
159519
159546
159525
159536
159526
159675
159699
159720
159600
159558
159708
159644
159456
159444
159508
159715
159700
159612
159706
159547
159391
159494
159519
159575
159579
159582
159599
159543
159459
159508
159621
159526
159513
159609
159676
159772
159727
159717
159679
159622
159572
159601
159599
159632
159590
159508
159650
159702
159653
159732
159818
159775
159752
159708
159586
159652
159733
159753
159706
159717
159639
159612
159570
159742
159797
159775
159855
159817
159778
159745
159825
159779
159768
159830
159750
159722
159736
159801
159834
159695
159692
159792
159744
159799
159766
159845
159855
159819
159917
159887
159851
159771
159811
159804
159831
159854
159820
159762
159768
159812
159993
159959
159913
159825
159809
159846
160069
159947
159793
159862
159905
159851
159862
159841
159822
159876
159863
159860
159733
159803
159926
159955
159944
159872
159871
159908
159928
159900
159895
159872
159883
159961
159992
160045
160091
160053
160068
160058
159993
160028
160096
160211
160370
160140
160010
159955
159854
159715
159707
159548
159422
159486
159423
159435
159377
159368
159557
159531
159500
159584
159701
159628
159723
159801
159784
159790
159958
159999
160019
160004
159999
160007
160030
160028
160008
159999
159988
160029
159935
159847
159954
160017
160040
160091
160015
159969
160001
160011
159986
160024
160091
160165
160111
160105
160104
160166
160140
160117
160092
160019
160138
160127
160116
160225
160133
160170
160109
160089
160170
160191
160208
160214
160238
160250
160236
160283
160206
160220
160252
160260
160346
160388
160358
160326
160271
160360
160446
160372
160323
160323
160339
160333
160336
160405
160411
160419
160375
160383
160368
160338
160329
160390
160456
160437
160391
160444
160463
160377
160414
160442
160469
160404
160340
160419
160481
160473
160353
160236
160227
160372
160475
160491
160530
160571
160552
160470
160452
160415
160387
160275
160287
160329
160291
160317
160355
160373
160439
160526
160489
160404
160372
160333
160430
160558
160459
160359
160362
160409
160496
160521
160557
160494
160412
160460
160381
160424
160386
160404
160450
160457
160440
160465
160480
160564
160463
160375
160332
160366
160391
160417
160495
160571
160555
160523
160474
160402
160340
160481
160526
160400
160457
160501
160523
160556
160547
160548
160523
160463
160468
160487
160552
160522
160532
160573
160547
160639
160643
160599
160497
160412
160304
160247
160275
160465
160606
160767
160770
160691
160590
160561
160661
160718
160725
160692
160578
160337
160307
160449
160549
160657
160637
160680
160628
160636
160608
160659
160684
160707
160588
160554
160505
160627
160697
160658
160655
160805
160855
160800
160618
160587
160653
160708
160685
160571
160523
160610
160590
160716
160734
160744
160726
160754
160784
160755
160813
160719
160676
160659
160639
160480
160598
160665
160650
160661
160703
160669
160668
160749
160765
160657
160798
160870
160748
160677
160764
160834
160791
160788
160802
160801
160881
160874
160733
160811
160738
160607
160508
160376
160248
160213
160251
160355
160265
160225
160176
160194
160167
160217
160395
160435
160447
160522
160501
160536
160569
160706
160809
160810
160732
160636
160610
160642
160682
160630
160619
160620
160633
160621
160547
160577
160837
160935
160725
160672
160618
160749
160755
160682
160669
160555
160685
160816
160875
160785
160641
160676
160766
160836
160843
160756
160671
160685
160648
160743
160792
160765
160673
160678
160770
160690
160681
160644
160764
160822
160732
160669
160704
160673
160727
160704
160698
160768
160748
160778
160823
160832
160835
160777
160840
160784
160734
160724
160816
160874
160893
160901
160825
160808
160738
160731
160793
160844
160860
160771
160789
160812
160848
160773
160784
160740
160719
160734
160759
160777
160801
160803
160762
160675
160686
160681
160807
160809
160806
160749
160657
160639
160703
160771
160784
160793
160782
160681
160637
160641
160727
160748
160686
160665
160690
160656
160709
160628
160557
160742
160891
160981
160735
160632
160648
160639
160666
160813
160803
160774
160745
160702
160770
160751
160798
160873
160798
160758
160744
160706
160648
160646
160617
160690
160678
160790
160822
160744
160893
160908
160833
160778
160709
160679
160721
160754
160787
160749
160773
160717
160668
160585
160652
160738
160796
160760
160833
160834
160845
160812
160734
160726
160774
160768
160666
160556
160820
160863
160764
160734
160746
160757
160752
160651
160691
160619
160680
160708
160753
160750
160732
160707
160709
160606
160563
160553
160669
160733
160681
160679
160771
160730
160771
160789
160800
160756
160712
160571
160672
160764
160717
160660
160601
160620
160664
160731
160719
160756
160612
160529
160528
160541
160559
160526
160629
160682
160728
160639
160569
160621
160692
160778
160811
160750
160589
160578
160660
160625
160519
160490
160599
160719
160809
160824
160818
160660
160713
160758
160832
160816
160794
160765
160827
160784
160787
160599
160554
160652
160600
160465
160320
160217
160229
160240
160251
160140
160217
160193
160106
160128
160161
160301
160376
160448
160475
160638
160681
160642
160626
160697
160638
160681
160707
160668
160555
160523
160668
160740
160756
160816
160765
160758
160659
160697
160738
160595
160578
160503
160573
160610
160627
160716
160714
160694
160716
160638
160738
160706
160681
160659
160582
160534
160519
160596
160659
160705
160697
160738
160699
160658
160530
160606
160637
160663
160702
160730
160655
160664
160667
160486
160605
160645
160628
160635
160656
160671
160775
160764
160676
160567
160600
160627
160736
160639
160690
160754
160841
160836
160736
160662
160600
160800
160799
160713
160782
160767
160731
160726
160771
160663
160514
160524
160613
160642
160769
160725
160680
160663
160577
160595
160542
160539
160529
160529
160703
160651
160626
160518
160555
160538
160598
160591
160614
160619
160668
160438
160396
160434
160376
160395
160447
160531
160642
160627
160579
160545
160535
160545
160577
160588
160500
160522
160532
160510
160545
160555
160593
160525
160552
160539
160450
160528
160585
160465
160409
160528
160564
160581
160563
160611
160512
160514
160574
160530
160455
160507
160661
160599
160540
160525
160422
160463
160389
160572
160540
160500
160565
160502
160528
160591
160452
160455
160511
160534
160645
160531
160523
160530
160509
160421
160369
160412
160508
160465
160442
160545
160627
160737
160689
160530
160384
160348
160503
160598
160507
160438
160451
160391
160493
160551
160568
160527
160460
160436
160510
160481
160378
160380
160600
160638
160600
160563
160610
160619
160603
160560
160543
160569
160382
160371
160422
160436
160526
160538
160571
160473
160376
160491
160532
160421
160489
160476
160479
160423
160409
160402
160505
160525
160453
160307
160255
160369
160482
160550
160425
160395
160384
160392
160451
160420
160482
160598
160665
160612
160572
160489
160516
160529
160626
160641
160647
160728
160800
160663
160548
160469
160413
160359
160270
160291
160239
160107
160022
159971
159914
159821
159857
159944
160022
159966
159949
160076
160191
160172
160203
160335
160440
160429
160383
160458
160469
160540
160547
160517
160374
160291
160406
160515
160516
160413
160491
160464
160458
160511
160488
160498
160456
160507
160422
160375
160456
160515
160487
160456
160386
160319
160410
160513
160514
160510
160566
160554
160450
160414
160410
160509
160647
160588
160472
160432
160351
160491
160539
160485
160396
160339
160488
160555
160564
160537
160478
160429
160416
160520
160559
160575
160567
160532
160617
160626
160551
160486
160493
160451
160433
160470
160671
160622
160536
160560
160512
160614
160611
160516
160471
160465
160454
160498
160511
160564
160493
160523
160503
160573
160593
160541
160407
160411
160333
160298
160462
160487
160513
160517
160470
160417
160428
160531
160499
160445
160341
160385
160467
160425
160376
160391
160433
160462
160489
160419
160247
160244
160349
160502
160581
160577
160532
160471
160540
160477
160333
160330
160351
160330
160431
160338
160326
160415
160496
160449
160415
160371
160346
160275
160267
160284
160379
160355
160436
160475
160424
160454
160431
160367
160346
160317
160261
160292
160351
160513
160543
160545
160528
160429
160401
160230
160185
160138
160422
160435
160427
160500
160478
160370
160350
160302
160382
160346
160309
160272
160267
160336
160442
160487
160326
160237
160265
160314
160301
160295
160289
160306
160242
160265
160302
160266
160300
160378
160384
160301
160234
160301
160345
160362
160261
160216
160339
160433
160458
160406
160330
160307
160330
160328
160355
160359
160336
160195
160218
160269
160258
160309
160300
160234
160236
160250
160394
160476
160409
160355
160216
160209
160225
160209
160328
160370
160343
160244
160263
160215
160216
160234
160262
160343
160394
160329
160272
160363
160380
160323
160251
160288
160257
160111
160132
160235
160490
160653
160519
160567
160453
160450
160432
160448
160387
160372
160311
160320
160317
160363
160299
160206
160118
160017
160070
159921
159710
159672
159652
159716
159788
159710
159700
159909
159942
159949
160072
160199
160174
160176
160214
160278
160330
160349
160350
160368
160424
160347
160318
160355
160326
160355
160484
160442
160277
160255
160397
160343
160241
160287
160340
160360
160324
160341
160372
160372
160383
160332
160317
160306
160324
160350
160417
160368
160432
160445
160472
160470
160485
160424
160409
160480
160408
160453
160463
160473
160511
160491
160619
160544
160428
160393
160524
160451
160400
160437
160424
160457
160459
160584
160618
160707
160644
160620
160575
160522
160496
160581
160610
160710
160700
160782
160739
160797
160801
160637
160601
160590
160573
160612
160631
160725
160654
160691
160679
160605
160645
160573
160591
160492
160362
160537
160654
160668
160665
160747
160733
160712
160639
160696
160759
160754
160717
160639
160738
160685
160663
160558
160633
160700
160680
160675
160701
160640
160719
160739
160661
160697
160694
160674
160506
160543
160621
160665
160632
160646
160601
160555
160713
160753
160680
160689
160634
160628
160669
160663
160734
160856
160879
160770
160675
160706
160752
160749
160708
160595
160581
160600
160792
160982
160946
160880
160888
160900
160895
160657
160764
160801
160827
160824
160692
160710
160703
160741
160918
160839
160826
160795
160725
160737
160774
160838
160914
160918
160842
160725
160796
160878
160855
160894
160918
160897
160850
160911
160721
160783
160931
160961
161007
160933
160838
160912
160932
160897
160828
160838
160917
160908
160889
160798
160833
160944
160909
160878
160889
160934
160975
160947
160983
161002
161002
161015
160998
160989
160891
160716
160840
160988
161048
161172
160993
161008
161073
161004
161004
160993
160957
160878
160931
161036
160916
160983
161008
161056
161130
161066
160949
161035
160995
160983
160991
161004
161151
161090
161058
160975
161051
160980
160986
161004
161002
161001
161103
161116
161191
161174
161217
161144
161119
161266
161257
161295
161348
161273
161170
161196
161186
161313
161193
160956
160791
160687
160613
160642
160553
160502
160713
160724
160841
160811
160774
160810
160874
161016
160918
160964
161054
161204
161184
161157
161134
161094
161084
161242
161211
161128
161103
161139
161179
161296
161228
161170
161154
161135
161142
161154
161209
161235
161167
161224
161125
161207
161248
161276
161221
161284
161347
161309
161212
161262
161190
161169
161119
161095
161159
161218
161317
161415
161334
161274
161294
161348
161283
161274
161230
161305
161315
161220
161283
161237
161322
161320
161212
161268
161301
161230
161304
161291
161406
161308
161152
161250
161350
161280
161348
161367
161454
161504
161432
161464
161387
161405
161413
161309
161242
161224
161382
161401
161422
161434
161363
161411
161396
161279
161334
161247
161237
161311
161396
161299
161279
161277
161442
161376
161340
161309
161289
161249
161200
161157
161207
161199
161318
161230
161285
161261
161182
161201
161268
161315
161335
161285
161256
161237
161129
161112
161165
161159
161154
161226
161107
161190
161218
161232
161233
161211
161225
161294
161249
161195
161137
161159
161202
161180
161116
161157
161104
161097
161108
161176
161201
161166
161139
161175
161114
161105
161089
161127
161084
161105
161109
161107
161153
161083
161029
161056
161112
161111
161200
161150
161078
161040
160980
160947
160917
160965
161144
161130
161057
161064
160966
161037
161185
161191
161142
161068
161048
161076
161027
160997
161024
161031
161054
160992
161006
161010
160945
161067
161060
161003
160935
160932
161006
161044
161036
161025
161071
161017
160951
160908
160794
160805
160981
161051
161031
161031
160964
161013
160962
160858
160936
161006
161026
161008
160925
160877
160861
160779
160792
160863
160954
160859
160864
160804
160767
160749
160874
160805
160803
160812
160913
160918
160872
160808
160818
160781
160899
160860
160815
161022
160912
160886
160834
160805
160853
160738
160823
160869
160824
160854
160882
160818
160898
160864
160841
160764
160778
160809
160848
160914
160815
160823
160873
160807
160658
160501
160460
160417
160419
160321
160219
160157
160214
160240
160269
160214
160256
160385
160385
160434
160473
160650
160738
160727
160717
160685
160617
160661
160602
160614
160630
160787
160749
160501
160577
160627
160663
160644
160591
160580
160712
160699
160655
160621
160609
160609
160605
160549
160561
160454
160494
160642
160623
160560
160569
160484
160565
160662
160675
160566
160471
160581
160500
160583
160524
160484
160491
160562
160562
160492
160388
160434
160382
160455
160467
160380
160380
160465
160425
160400
160445
160539
160561
160471
160401
160363
160456
160512
160581
160462
160381
160419
160485
160442
160435
160410
160394
160343
160284
160321
160350
160351
160443
160506
160325
160235
160281
160354
160333
160267
160180
160197
160197
160238
160281
160309
160270
160259
160213
160240
160185
160162
160145
160142
160207
160124
160112
160054
160139
160056
159967
160011
160061
160221
160238
160133
160069
160060
160091
159979
159881
159960
159863
159876
159939
159949
160044
159980
159876
159908
159937
160002
159964
159976
159964
159946
159932
159896
159867
159882
159884
159948
159995
160003
159944
159856
159828
159852
159725
159743
159707
159807
159910
159892
159985
160050
160003
159878
159760
159715
159631
159779
159900
159951
159896
159798
159768
159723
159781
159724
159738
159802
159802
159678
159680
159716
159770
159866
159863
159720
159555
159608
159728
159750
159775
159734
159650
159635
159667
159682
159687
159566
159597
159699
159695
159683
159705
159695
159620
159550
159517
159610
159654
159652
159638
159537
159605
159439
159440
159414
159464
159564
159683
159659
159584
159502
159460
159483
159506
159554
159566
159611
159455
159460
159539
159373
159357
159400
159484
159432
159355
159393
159402
159311
159296
159287
159485
159545
159629
159581
159428
159349
159223
159256
159239
159217
159278
159327
159394
159348
159319
159295
159332
159376
159398
159329
159331
159302
159404
159288
159303
159461
159518
159422
159263
159233
159336
159327
159266
159140
159119
159114
159022
158928
158836
158667
158651
158645
158700
158842
158838
158797
158742
158766
158702
158624
158830
158901
159049
159101
159043
159060
159105
159222
159190
159119
159068
158946
159030
159059
159029
159019
159012
159120
159129
159051
159008
158903
158855
158939
158973
159069
159285
159270
159094
159084
159025
158973
159042
159102
159021
159100
159109
159129
159095
159004
158978
158935
158839
158961
158974
159077
159139
159111
159061
158940
158929
158957
159004
159034
158963
158969
159005
159053
159094
159117
159147
158972
158921
158947
158899
158899
158974
158979
159023
158920
158886
159012
158964
158957
158933
158883
158952
158966
159033
158961
158910
158961
159029
159036
158871
158895
158950
158897
158890
158853
158833
158852
158889
158912
158906
158924
158872
158886
158792
158641
158702
158727
158725
158678
158678
158656
158815
158841
158823
158779
158764
158781
158636
158525
158537
158661
158750
158693
158738
158742
158696
158691
158518
158662
158714
158647
158650
158620
158647
158674
158710
158649
158590
158507
158566
158570
158575
158590
158566
158531
158615
158646
158606
158605
158678
158671
158576
158470
158496
158593
158825
158635
158507
158546
158537
158626
158666
158652
158566
158551
158578
158624
158635
158649
158571
158586
158536
158587
158663
158540
158654
158680
158639
158649
158499
158524
158605
158596
158695
158520
158595
158573
158529
158554
158511
158618
158686
158750
158717
158727
158661
158568
158525
158463
158442
158441
158428
158582
158635
158619
158680
158681
158719
158621
158451
158536
158565
158531
158529
158472
158459
158483
158495
158473
158405
158420
158482
158452
158536
158663
158614
158534
158517
158396
158466
158595
158615
158499
158456
158481
158477
158480
158453
158389
158339
158441
158423
158462
158419
158482
158423
158293
158358
158407
158392
158392
158455
158501
158482
158343
158421
158412
158396
158421
158289
158259
158322
158397
158467
158621
158706
158726
158735
158573
158569
158669
158577
158601
158562
158427
158543
158620
158448
158272
158189
158151
158080
157974
157818
157778
157708
157771
157906
157964
157963
158013
157965
158149
158180
158158
158352
158389
158370
158376
158337
158350
158283
158332
158503
158454
158503
158506
158467
158370
158266
158279
158388
158443
158399
158355
158378
158410
158411
158508
158445
158427
158495
158363
158268
158277
158302
158442
158502
158419
158336
158288
158325
158390
158378
158355
158399
158446
158490
158428
158344
158398
158405
158372
158316
158392
158347
158401
158367
158302
158357
158379
158358
158353
158312
158380
158440
158339
158295
158305
158355
158452
158321
158380
158471
158523
158462
158455
158380
158386
158301
158396
158392
158425
158447
158412
158463
158410
158422
158392
158306
158283
158290
158265
158293
158317
158369
158390
158446
158517
158277
158235
158290
158247
158254
158195
158264
158272
158384
158371
158245
158277
158272
158343
158381
158298
158335
158298
158339
158445
158379
158339
158203
158207
158190
158029
158253
158294
158253
158226
158150
158155
158191
158308
158358
158277
158210
158110
158183
158271
158238
158351
158286
158237
158218
158174
158235
158282
158259
158231
158138
158197
158389
158424
158369
158267
158325
158288
158209
158288
158196
158191
158169
158173
158151
158205
158234
158161
158188
158322
158249
158222
158094
158067
158193
158274
158238
158224
158130
158177
158145
158237
158264
158347
158281
158252
158335
158350
158302
158207
158162
158175
158132
158145
158192
158281
158268
158231
158139
158163
158291
158335
158204
158157
158253
158245
158245
158270
158261
158175
158123
158089
158161
158248
158222
158285
158199
158257
158260
158343
158278
158178
158226
158222
158146
158215
158098
158168
158286
158325
158218
158219
158201
158183
158223
158243
158226
158142
158081
158119
158221
158223
158178
158178
158244
158254
158132
158132
158153
158106
157980
158037
158132
158084
158175
158108
158165
158213
158119
158262
158227
158192
158248
158297
158218
158304
158321
158286
158284
158291
158331
158323
158361
158294
158206
157922
157822
157838
157939
157770
157677
157734
157637
157627
157566
157720
157848
157839
157802
157767
157803
157929
157998
158028
158088
158075
158054
158050
158137
158160
158135
158202
158270
158207
158124
158103
158213
158228
158209
158235
158042
158051
158164
158168
158150
158119
158146
158161
158356
158317
158245
158273
158323
158333
158198
158059
158142
158219
158181
158138
158053
158155
158297
158257
158311
158293
158296
158275
158152
158024
158056
158198
158265
158356
158313
158282
158233
158318
158277
158125
158150
158140
158180
158102
158065
158142
158389
158409
158417
158354
158155
158130
158306
158259
158248
158301
158357
158478
158343
158262
158302
158396
158317
158283
158199
158119
158162
158294
158336
158250
158317
158428
158342
158151
158081
158078
158094
158168
158251
158347
158231
158300
158313
158286
158063
158093
158140
158225
158129
158044
158096
158176
158177
158181
158196
158223
158226
158199
158206
158113
158024
157983
158196
158327
158339
158180
158140
158025
157995
158048
158027
158113
158182
158133
158114
158007
157985
158213
158245
158164
158166
158155
158031
158029
158154
158118
158201
158144
158077
158040
158049
158229
158270
158091
158081
158045
158045
158089
158161
158268
158211
158134
158119
158104
158131
158145
158159
158103
157989
157998
158000
158130
158189
158056
157930
157944
158064
158109
158093
158182
158117
158074
158075
158045
158156
158115
158035
158046
158010
158022
157951
158018
158124
158176
158175
158054
157983
157978
158070
158039
158069
158283
158280
158232
158157
158078
158022
158085
158058
158143
158168
158222
158239
158272
158226
158201
158196
158203
158218
158184
158037
158031
158179
158173
158296
158288
158241
158190
158152
158161
158160
158129
158173
158170
158154
158141
158200
158224
158208
158140
158105
158178
158294
158262
158223
158178
158145
158044
158144
158248
158193
158118
158179
158156
158257
158177
158143
158167
158165
158290
158313
158347
158374
158391
158372
158359
158303
158323
158296
158187
158151
158097
157995
157882
157894
157717
157770
157740
157611
157647
157613
157724
157819
157839
157906
157942
157997
157984
158006
158095
158139
158080
158169
158364
158359
158344
158290
158178
158119
158160
158149
158152
158187
158197
158197
158116
158160
158233
158236
158391
158321
158306
158268
158194
158236
158245
158218
158213
158221
158243
158239
158131
158110
158210
158334
158343
158405
158280
158133
158087
158119
158329
158345
158344
158370
158295
158356
158370
158315
158236
158251
158259
158255
158309
158359
158371
158525
158415
158358
158358
158286
158324
158306
158237
158318
158424
158500
158424
158411
158390
158375
158467
158447
158436
158358
158385
158354
158319
158412
158516
158383
158364
158348
158357
158322
158291
158432
158396
158330
158291
158344
158465
158399
158144
158267
158243
158296
158322
158318
158212
158218
158283
158343
158292
158284
158261
158383
158366
158350
158325
158215
158203
158172
158180
158288
158222
158323
158419
158330
158261
158191
158207
158206
158193
158218
158235
158333
158292
158210
158161
158227
158349
158302
158271
158351
158384
158271
158274
158297
158249
158197
158315
158352
158403
158357
158347
158441
158368
158333
158352
158285
158292
158363
158362
158363
158293
158344
158330
158351
158243
158121
158263
158358
158327
158352
158469
158374
158271
158197
158302
158384
158451
158396
158293
158268
158267
158290
158344
158393
158504
158421
158385
158336
158310
158283
158367
158432
158475
158405
158311
158278
158351
158400
158308
158291
158346
158445
158491
158532
158401
158256
158267
158432
158476
158424
158392
158390
158412
158451
158435
158474
158489
158388
158379
158377
158321
158334
158303
158330
158406
158370
158479
158474
158472
158419
158386
158421
158447
158376
158416
158444
158468
158471
158357
158397
158429
158523
158581
158530
158509
158374
158399
158451
158418
158295
158335
158322
158482
158549
158575
158450
158443
158349
158369
158495
158459
158456
158486
158545
158541
158543
158657
158794
158716
158658
158586
158626
158787
158745
158554
158472
158276
158139
158096
158106
157970
157937
157919
157999
158030
158041
158050
158147
158217
158215
158281
158325
158273
158334
158406
158534
158640
158659
158570
158663
158613
158728
158738
158688
158560
158568
158613
158627
158689
158685
158622
158513
158479
158539
158588
158657
158669
158645
158617
158585
158685
158752
158687
158629
158632
158636
158610
158635
158689
158669
158619
158638
158657
158787
158697
158695
158706
158729
158674
158695
158674
158637
158768
158810
158780
158694
158759
158886
158705
158501
158719
159052
158887
158750
158643
158532
158655
158740
158821
158738
158750
158762
158829
158836
158807
158770
158872
158807
158857
158870
158824
158906
158880
158819
158780
158759
158844
158845
158899
158908
158697
158726
158675
158770
158770
158714
158800
158746
158800
158862
158766
158698
158675
158632
158641
158723
158809
158727
158616
158614
158677
158782
158793
158745
158718
158688
158729
158773
158762
158749
158834
158816
158790
158833
158772
158705
158752
158739
158682
158688
158690
158733
158765
158756
158756
158696
158756
158769
158734
158693
158639
158638
158684
158710
158720
158663
158693
158773
158820
158779
158769
158781
158782
158808
158846
158854
158805
158813
158834
158837
158853
158839
158809
158824
158853
158864
158949
158791
158790
158950
158930
159009
158939
158958
158889
158818
158811
158853
158805
158924
158753
158847
158940
158939
158879
158939
158865
158805
158862
158988
159064
159004
158951
159028
158998
158841
158839
158838
158886
159032
158937
158916
158946
159012
158966
159005
159186
159151
159128
159065
158923
158991
159083
159038
159122
159123
159022
158905
158948
159034
159034
159014
158922
158944
158998
159023
159106
159081
159080
159045
158932
158920
158979
158966
158983
159038
159036
158939
158980
159103
159102
159158
159117
159025
158886
158957
158997
158919
158896
158854
158853
158984
159026
159123
159060
159020
159024
158935
158931
158940
158921
158993
159013
159157
159194
159184
159249
159177
159152
159129
159016
159158
159249
159130
159020
158852
158763
158762
158626
158575
158527
158486
158466
158383
158473
158621
158689
158647
158586
158584
158553
158630
158906
159147
159235
159090
158999
158968
158975
158910
158844
158969
158980
159073
159132
159058
159085
159164
159143
159076
159088
159139
159168
159125
159113
158992
159020
158991
158992
158967
158978
159098
159104
159099
159092
159101
159169
159189
159133
159096
159075
159057
159022
159029
159154
159178
159217
159193
159061
159113
159099
159111
159230
159189
159083
159085
159177
159224
159305
159161
159102
159092
159161
159087
159122
159280
159188
159253
159229
159232
159122
159178
159244
159217
159251
159294
159238
159184
159183
159282
159333
159371
159309
159299
159288
159262
159324
159307
159286
159249
159235
159306
159101
158996
159123
159145
159192
159253
159242
159254
159212
159236
159185
159201
159294
159291
159245
159236
159249
159194
159129
159187
159336
159342
159195
159221
159246
159375
159410
159390
159410
159410
159361
159262
159185
159145
159137
159107
159213
159205
159189
159347
159282
159337
159390
159403
159379
159260
159238
159189
159127
159229
159248
159249
159336
159341
159381
159292
159314
159375
159419
159357
159248
159238
159248
159247
159262
159338
159338
159366
159387
159365
159399
159371
159406
159280
159257
159329
159398
159393
159335
159298
159376
159443
159413
159240
159188
159224
159308
159426
159421
159420
159341
159175
159279
159481
159531
159457
159416
159410
159414
159381
159365
159393
159445
159396
159430
159393
159335
159391
159472
159381
159414
159439
159324
159378
159534
159615
159584
159479
159358
159388
159387
159336
159357
159413
159357
159406
159468
159414
159500
159580
159480
159415
159470
159449
159565
159538
159497
159467
159438
159527
159484
159461
159506
159428
159444
159483
159489
159524
159442
159412
159454
159602
159628
159544
159543
159563
159569
159486
159424
159463
159509
159529
159515
159496
159605
159625
159572
159659
159623
159570
159532
159452
159604
159617
159678
159727
159735
159653
159647
159778
159740
159702
159681
159688
159795
159637
159627
159655
159620
159594
159502
159410
159314
159165
159068
158973
159024
159261
159373
159400
159424
159429
159302
159365
159514
159655
159641
159587
159560
159637
159697
159707
159638
159616
159847
159790
159732
159714
159662
159610
159674
159641
159591
159581
159680
159751
159811
159832
159737
159838
159856
159834
159825
159786
159767
159712
159685
159740
159696
159807
159924
159886
159936
159938
159981
159917
159723
159739
159772
159717
159709
159593
159713
159814
159812
159812
159873
159817
159821
159868
159902
159895
159928
159860
159884
159938
159941
159896
159835
159870
159990
160053
160071
160015
160032
159942
159933
159961
159963
160065
160137
159979
160019
159825
159856
160108
160255
160214
160018
159964
159877
159828
159807
159699
159842
159896
160005
160005
159932
159924
159926
159943
159983
159964
159894
159939
159951
159900
159801
159882
160004
159944
159896
159952
159780
159826
160050
159990
159902
159889
159910
159866
159765
159730
159862
159892
160046
160022
159902
159860
159897
159834
159888
159844
159807
159810
159816
159934
159947
160005
160029
160037
159937
159856
159889
159909
159921
159966
159857
159965
159934
159887
159881
159893
159861
159870
159947
159930
160057
160087
160026
159929
159905
159838
159805
159882
159928
159874
159827
159871
160000
159978
159917
159899
159919
159960
159920
159917
159927
160032
159960
159900
159956
159936
159949
159959
160015
160030
159975
159962
159863
159907
159909
159822
159833
159952
159946
159952
160134
160177
160062
159991
160002
159928
159930
159876
159831
159900
159901
159913
159903
159827
159868
160004
160104
160094
159978
159914
159885
159993
160041
160013
160003
159962
160021
160015
159967
159937
159871
159803
159824
159838
160036
160111
160237
160137
159991
159883
159901
159923
159961
159963
159927
159822
159875
160073
159981
159882
159879
159955
159977
160073
160174
160157
160086
160030
160047
159941
159883
159996
160110
160073
160073
160126
160106
160120
160147
160018
159899
160054
160068
160142
160199
160044
159953
160162
160269
160320
160299
160238
160157
160050
160015
159954
159940
159884
159800
159776
159650
159556
159459
159551
159596
159624
159645
159648
159787
159911
160063
160039
159982
159950
159957
159948
160025
160103
160024
160033
159914
160015
160163
160286
160156
160063
160189
160148
160068
160129
160094
160011
160013
160068
160106
160169
160126
160211
160277
160251
160249
160258
160197
160153
160107
160064
160094
160049
160017
159976
159985
160064
160187
160341
160327
160180
160226
160237
160160
160208
160230
160257
160180
160219
160219
160258
160301
160240
160184
160258
160270
160279
160284
160283
160390
160338
160311
160336
160292
160317
160311
160367
160352
160255
160276
160275
160324
160331
160329
160281
160278
160356
160343
160304
160314
160308
160430
160356
160359
160358
160301
160287
160385
160354
160309
160209
160108
160106
160214
160225
160216
160310
160380
160439
160225
160129
160148
160144
160243
160219
160114
160165
160178
160238
160306
160191
160197
160200
160091
160189
160182
160310
160341
160277
160163
160176
160175
160192
160158
160128
160096
160220
160358
160281
160157
160138
160142
160169
160190
160353
160333
160315
160128
160071
160050
160092
160134
160278
160273
160286
160182
160165
160224
160205
160264
160243
160283
160302
160334
160318
160246
160221
160245
160243
160274
160324
160345
160287
160289
160240
160156
160205
160163
160173
160158
160193
160349
160325
160283
160279
160265
160263
160494
160533
160429
160251
160273
160227
160280
160230
160153
160224
160344
160213
160286
160187
160266
160253
160274
160277
160285
160323
160342
160281
160274
160137
160237
160280
160270
160265
160239
160320
160342
160308
160264
160208
160291
160264
160359
160407
160224
160201
160219
160224
160268
160159
160228
160275
160288
160227
160139
160224
160247
160148
160103
160268
160384
160337
160322
160285
160208
160210
160274
160294
160288
160215
160202
160153
160150
160180
160256
160318
160394
160317
160321
160310
160310
160352
160363
160287
160308
160309
160333
160376
160392
160355
160305
160324
160230
160250
160318
160411
160367
160382
160539
160669
160729
160576
160568
160560
160428
160440
160368
160341
160259
160201
160098
160008
159943
159854
159720
159792
159910
159972
160021
160107
160134
159987
160053
160202
160171
160324
160457
160409
160490
160467
160516
160467
160452
160413
160340
160322
160279
160354
160427
160446
160459
160334
160355
160469
160446
160443
160511
160501
160487
160477
160414
160453
160572
160551
160478
160505
160468
160444
160416
160395
160481
160520
160595
160623
160572
160519
160518
160533
160502
160491
160436
160429
160476
160476
160421
160429
160580
160596
160601
160521
160543
160623
160633
160606
160577
160645
160734
160789
160751
160614
160589
160547
160504
160650
160816
160897
160913
160745
160628
160712
160798
160770
160592
160716
160788
160807
160777
160769
160689
160667
160661
160691
160706
160734
160671
160576
160644
160667
160839
160838
160779
160757
160764
160720
160641
160640
160677
160597
160564
160706
160857
160903
160830
160774
160688
160716
160703
160722
160753
160836
160708
160706
160725
160729
160789
160781
160727
160681
160703
160695
160766
160760
160737
160729
160798
160832
160870
160869
160735
160662
160781
160814
160751
160698
160660
160760
160739
160761
160750
160804
160921
161034
161049
160820
160815
160825
160827
160718
160776
160874
160883
160871
160827
160765
160742
160824
160923
161034
160972
160930
160958
161020
160985
160899
160776
160799
160798
160880
160897
160990
160965
161012
160975
160960
160822
160801
160851
160886
160889
160970
160998
161083
160855
160716
160813
160905
161169
161134
160958
160935
160902
160877
160909
160940
160895
160989
160996
160922
160976
161003
160970
160946
160921
160740
160870
161089
160951
160858
160899
160932
160933
160954
161004
161004
160986
161150
160998
160805
160749
160854
161084
161085
161070
161047
160966
160947
161089
161187
161166
161106
160900
160861
160895
160959
160963
160941
160953
160981
161015
160993
161001
161054
161064
161055
160953
160975
160961
160955
160985
161004
160989
160920
160997
160996
160927
160924
160990
160997
161105
161043
161109
161092
161013
160968
160904
160963
161046
161145
161204
161075
161076
160999
160964
161125
161107
161107
161134
161219
161373
161267
161292
161442
161425
161343
161210
161155
161111
161096
161066
160957
160798
160730
160722
160686
160589
160640
160665
160742
160803
160799
160784
160803
160879
160850
160846
161075
161126
161127
161080
161161
161195
161255
161258
161299
161231
161235
161281
161263
161276
161172
161148
161163
161146
161172
161229
161381
161390
161379
161334
161343
161421
161258
161184
161212
161186
161247
161265
161224
161191
161246
161327
161330
161360
161398
161364
161332
161441
161328
161161
161068
161130
161207
161305
161450
161496
161394
161341
161324
161389
161336
161441
161478
161521
161525
161511
161392
161348
161337
161369
161475
161503
161451
161514
161563
161436
161350
161404
161407
161492
161405
161428
161585
161625
161597
161462
161476
161474
161516
161508
161401
161343
161346
161386
161494
161572
161579
161375
161370
161401
161374
161492
161513
161481
161468
161326
161430
161405
161349
161345
161408
161489
161532
161478
161536
161451
161333
161485
161522
161541
161561
161563
161473
161435
161502
161353
161339
161386
161383
161453
161508
161627
161621
161566
161518
161470
161495
161385
161378
161451
161392
161458
161571
161492
161453
161486
161622
161592
161584
161457
161382
161470
161483
161508
161513
161513
161612
161690
161638
161667
161639
161626
161628
161561
161436
161378
161476
161619
161680
161739
161633
161524
161391
161476
161503
161450
161476
161556
161600
161657
161548
161629
161657
161640
161654
161541
161647
161704
161594
161519
161474
161637
161775
161701
161607
161568
161743
161724
161611
161567
161599
161663
161742
161684
161680
161717
161645
161612
161616
161553
161526
161577
161633
161719
161715
161590
161608
161682
161777
161770
161697
161663
161727
161724
161740
161721
161710
161694
161792
161732
161660
161621
161721
161716
161690
161727
161785
161854
161830
161837
161841
161621
161646
161768
161834
161670
161611
161670
161697
161736
161826
161903
161914
161789
161754
161791
161617
161599
161644
161771
161949
161818
161758
161775
161743
161788
161773
161775
161701
161728
161825
161878
161795
161758
161778
161793
161750
161793
161803
161702
161744
161692
161652
161591
161658
161738
161994
162059
162017
161940
161936
161949
161771
161760
161778
161769
161797
161833
161826
161694
161534
161454
161372
161245
161253
161175
161267
161321
161404
161451
161495
161572
161559
161532
161641
161668
161693
161790
161899
161851
161803
161762
161725
161729
161766
161820
161886
161959
161859
161884
161880
161796
161736
161761
161893
161868
161901
161830
161836
161867
161749
161827
161887
161858
161987
161928
161916
161847
161780
161846
161789
161979
162033
161924
161852
161767
161869
161929
162034
161818
161665
161732
161809
162023
162061
162050
161979
161987
161904
161888
161817
161823
161853
161944
162101
162111
162002
162025
162038
162053
161932
161908
161839
161905
162011
162077
162024
162031
162164
162248
162151
162086
162101
162123
162104
161892
161762
161823
162045
162125
162130
162064
162033
162066
162069
162098
162026
161959
162020
162014
161988
162033
162082
162179
162139
162012
161956
162010
162072
162200
162189
162142
162115
162096
162118
162014
162074
162167
162190
162206
162197
162173
162105
162108
162073
162005
162159
162262
162393
162404
162310
162270
162198
162135
162091
162067
162038
162091
162024
162091
162160
162145
162261
162189
162075
162100
162092
162051
162140
162301
162242
162273
162275
162190
162143
162086
162209
162291
162252
162210
162279
162317
162372
162293
162237
162315
162272
162170
162125
162270
162448
162396
162399
162430
162387
162337
162497
162434
162362
162225
162276
162408
162452
162364
162421
162484
162579
162521
162525
162444
162386
162342
162433
162485
162515
162456
162440
162446
162574
162536
162565
162606
162509
162506
162513
162452
162519
162477
162493
162573
162541
162515
162489
162476
162496
162391
162456
162610
162630
162579
162583
162583
162476
162431
162410
162381
162525
162657
162636
162598
162586
162585
162618
162513
162602
162595
162578
162656
162577
162589
162612
162653
162628
162618
162627
162552
162547
162600
162556
162588
162638
162656
162803
162706
162680
162603
162611
162693
162672
162630
162597
162642
162618
162675
162759
162682
162691
162717
162720
162712
162601
162648
162640
162736
162800
162779
162767
162649
162710
162883
162812
162836
162854
162812
162749
162776
162817
162866
163094
162904
162670
162682
162630
162556
162475
162356
162357
162369
162348
162359
162382
162515
162487
162511
162449
162496
162625
162633
162666
162658
162745
162959
162995
162854
162805
162893
162877
162837
162930
162952
162835
162869
162943
162928
162960
162975
163000
163014
163005
163019
162956
163004
163122
163049
163003
162972
162995
162943
162948
162980
162984
163076
163030
162960
163025
163080
163054
163069
163081
163076
162912
162913
162893
162972
163080
163157
163153
163084
163008
163044
162991
162956
162993
162964
162923
162949
162905
162945
163064
163072
162996
162874
162888
162949
163052
162993
162935
162926
162877
162863
162807
162811
162873
162960
163039
162981
162968
162991
162985
162895
162795
162849
162941
162891
162982
162847
162766
162683
162802
162888
162755
162745
162760
162791
162803
162901
162880
162856
162850
162848
162732
162688
162673
162693
162707
162668
162688
162682
162784
162857
162864
162903
162867
162801
162836
162712
162773
162753
162795
162807
162779
162819
162725
162754
162756
162743
162750
162727
162748
162872
162825
162771
162781
162820
162775
162783
162732
162742
162723
162795
162802
162812
162783
162865
162934
162910
162858
162778
162862
162911
162827
162814
162771
162887
162816
162715
162801
162752
162740
162772
162812
162829
162836
162875
162874
162759
162750
162786
162791
162852
162850
162805
162747
162709
162785
162770
162876
162955
162966
162881
162841
162823
162770
162876
163002
162905
162940
162971
162852
162759
162640
162706
162918
162916
162882
162811
162781
162764
162835
162788
162730
162586
162695
162705
162814
162733
162717
162750
162773
162749
162763
162803
162796
162732
162778
162889
162880
162767
162769
162705
162583
162733
162815
162806
162816
162634
162605
162629
162667
162800
162882
162812
162750
162782
162791
162666
162689
162810
162963
162825
162712
162681
162661
162646
162664
162569
162616
162700
162799
162840
162701
162714
162650
162636
162529
162577
162666
162553
162532
162604
162657
162658
162666
162675
162623
162510
162549
162633
162639
162799
162742
162719
162703
162740
162849
162816
162820
162879
162792
162777
162806
162896
162962
162698
162604
162453
162391
162330
162143
162080
162024
162029
162097
162161
162187
162150
162184
162194
162319
162382
162380
162416
162449
162530
162527
162409
162489
162562
162578
162601
162479
162597
162622
162513
162507
162510
162659
162769
162788
162641
162557
162609
162589
162605
162669
162655
162578
162650
162667
162570
162478
162464
162579
162705
162803
162589
162485
162409
162614
162874
162785
162638
162583
162597
162647
162715
162727
162616
162632
162589
162607
162615
162597
162596
162637
162599
162582
162627
162657
162680
162715
162771
162691
162600
162612
162601
162605
162646
162737
162713
162593
162606
162613
162573
162561
162520
162623
162646
162709
162661
162634
162740
162642
162584
162571
162471
162597
162647
162618
162641
162624
162635
162572
162589
162593
162471
162572
162580
162473
162450
162548
162521
162524
162495
162378
162359
162339
162404
162511
162618
162590
162562
162500
162391
162282
162315
162262
162328
162415
162495
162442
162566
162486
162482
162510
162350
162306
162325
162413
162313
162288
162244
162381
162368
162404
162328
162282
162382
162415
162429
162319
162268
162261
162230
162336
162297
162231
162327
162361
162356
162258
162319
162339
162277
162250
162339
162369
162279
162361
162354
162290
162298
162349
162328
162296
162187
162264
162287
162305
162379
162280
162275
162342
162329
162404
162380
162396
162324
162282
162266
162164
162186
162184
162158
162156
162239
162305
162346
162383
162310
162261
162321
162273
162113
162240
162329
162386
162408
162293
162274
162264
162238
162290
162387
162367
162226
162213
162232
162264
162270
162197
162216
162238
162338
162258
162196
162342
162397
162378
162353
162198
162255
162305
162206
162113
162159
162174
162095
162132
162241
162242
162218
162274
162276
162349
162245
162214
162261
162134
162087
162198
162300
162279
162123
162200
162208
162212
162183
162116
162150
162067
162077
162072
162124
162230
162235
162299
162372
162281
162183
162181
162117
162000
162013
162105
162059
162302
162306
162270
162260
162122
162137
162124
162149
162135
162000
162039
162099
162094
162200
162251
162298
162315
162334
162440
162530
162525
162329
162157
162186
162234
162348
162229
162130
162081
161982
161952
161894
161870
161787
161656
161648
161747
161784
161755
161853
161770
161713
161713
161801
161994
162094
162136
162147
162138
162166
162201
162174
162195
162184
162184
162170
162108
162032
162079
162149
162202
162213
162277
162239
162111
162037
162181
162148
162088
162113
162181
162077
162181
162201
162132
162105
162028
162057
162083
162118
162159
162274
162309
162331
162264
162242
162343
162164
162020
162024
162182
162240
162223
162230
162166
162147
162216
162292
162278
162287
162204
162117
162216
162241
162162
162168
162167
162155
162194
162281
162320
162304
162270
162258
162261
162299
162306
162263
162312
162322
162370
162346
162289
162301
162251
162289
162379
162287
162282
162344
162294
162189
162121
162091
162213
162323
162283
162279
162229
162063
162015
162212
162187
162062
162085
162134
162097
162171
162109
162069
162179
162197
162208
162135
162078
162200
162223
162136
162061
161979
162098
162086
162073
162171
162161
162116
162120
162074
162058
162052
162091
162138
161991
162017
162050
162177
162187
161984
162036
162025
161998
162025
162155
162198
162196
162163
162113
162045
162077
162015
162035
162111
162248
162257
162114
162118
162136
162088
162053
162022
162055
162113
162127
162071
162223
162114
162058
162077
162002
161963
161967
162034
161952
162015
161984
162114
162219
162209
162168
162033
161933
162050
162117
162143
162045
162074
162088
162081
162060
161998
162099
162162
162140
162145
162032
161875
161865
161840
161960
162025
162095
162231
162267
162035
162008
162006
161957
161888
161839
161914
162095
162193
162125
162100
161920
161982
161969
161941
161946
161914
161978
162046
162007
162037
161937
161991
162010
161955
161948
161938
161927
161979
161835
161900
162021
162035
162077
162029
162012
161953
162008
161965
161928
161956
161944
161935
161993
162055
162046
161959
161945
161993
161893
161889
161980
162021
161975
161839
161818
161944
161966
161960
161950
161930
161899
161888
161874
161906
161955
162001
162019
162059
162023
162009
162015
161962
162096
162205
162091
161945
161962
161867
161781
161826
161873
161995
162012
162031
162024
162065
162092
162091
162165
162221
162239
162120
162025
161990
161996
162074
162119
162071
161930
161729
161622
161536
161511
161555
161488
161553
161644
161629
161566
161578
161625
161713
161801
161873
161939
161954
161904
161903
161976
161929
161895
161945
161927
161970
161898
161900
161953
162015
161988
161907
161908
162078
162174
162219
162166
162028
162055
162011
162042
162033
162010
162095
162110
162091
162132
162127
162112
162118
162172
162182
162137
162127
161996
161943
161884
161983
162208
162251
162267
162262
162123
162123
162082
162055
162109
162106
162087
162223
162259
162296
162211
162181
162165
162111
162224
162266
162329
162391
162344
162260
162171
162237
162151
162126
162207
162239
162257
162229
162235
162168
162177
162273
162443
162395
162312
162163
162172
162171
162213
162144
162012
161961
161983
161999
162143
162273
162399
162352
162149
161946
161957
161982
161952
162024
162065
161956
161975
162034
162019
162103
162045
162011
162037
162098
162043
162095
162104
161922
161921
162084
162056
162073
162086
162041
161970
162001
162086
162044
162118
162063
161981
162022
161982
161960
162029
161962
161976
161997
162015
161995
161845
161928
161936
161878
161973
161978
161974
161984
162097
162120
162007
162091
162073
161978
161922
161905
161908
161988
162078
162164
162137
162169
162149
162085
161999
162003
162072
161900
161885
161896
161946
162072
162140
162103
161974
161873
161902
161903
162042
162126
161999
162077
161991
161879
161877
161854
161968
162029
161948
162019
162093
162061
161953
161922
161958
161974
161933
161958
161925
161993
161913
161853
161836
161903
161919
161889
162021
162041
162033
162049
161885
161782
161940
161972
161931
161830
161720
161784
161822
161787
161850
161888
161887
161865
161901
161941
161912
161965
161880
161839
161895
161907
161944
161953
161925
161831
161846
161743
161720
161881
161833
161794
161882
161930
162011
161925
161906
161959
161988
161951
161893
161977
161931
161899
161836
161817
161790
161717
161681
161774
161867
162005
161994
161949
161927
161873
161911
162006
161988
162005
161861
161930
162025
161961
161836
161746
161702
161809
162030
162085
162098
162019
161962
162061
162077
162064
162040
162130
162150
162195
162137
162127
162167
162137
162081
161958
162011
161953
161869
161724
161584
161590
161540
161511
161460
161433
161453
161561
161594
161679
161631
161678
161691
161747
161822
161734
161871
161955
161831
161847
161768
161765
161808
161816
161952
161921
161946
161940
161929
161918
161876
161936
161903
161807
161786
161896
161914
161911
161872
161904
161839
161775
161803
161850
161867
161887
161971
161962
161895
161847
161759
161823
161891
161853
161898
161872
161893
161869
161895
161966
161932
161941
161888
161945
161981
161860
161777
161836
161913
161827
161833
161974
162052
162099
162010
161946
161895
161983
162097
162029
162096
162150
162081
162079
162068
161974
161926
162035
162107
162171
161951
161942
161929
161913
161996
162076
162043
161976
161951
161948
161921
161945
162021
161985
161989
161944
161974
161970
161903
161944
161915
161940
162078
162105
161983
161893
161883
161833
161895
162006
161939
162030
161989
162018
161984
161936
162003
162006
161845
161866
161899
161864
161922
161883
161813
161734
161820
161970
161985
162061
162109
162048
162043
161887
161766
161780
161750
161821
161855
161903
161904
161946
162058
162086
161969
161813
161882
161976
162054
162070
161940
161891
161916
161937
161978
161943
162030
161987
162006
162081
161946
161984
161989
162065
161948
161865
161881
161896
161922
161975
161993
162043
162048
161994
162016
162048
161971
161918
162018
162147
162133
162072
161917
161875
161994
161891
161922
161996
161955
161933
161843
161850
161889
162046
162109
162076
162155
162146
162013
162086
161953
161934
161934
161973
162139
162031
161842
161901
161951
162031
162103
162169
162067
161995
162002
161916
162007
162051
162015
162045
161945
161922
161944
161961
161893
161908
161968
162042
162086
162056
161938
161880
162010
162016
161981
162045
162058
161930
161948
162038
162065
162018
162037
162140
162107
161991
161967
162038
162077
162046
161953
162025
161940
161926
162014
161936
161957
162002
162056
162068
162041
161966
161922
162005
162047
161874
161968
162047
161897
161957
162092
162114
162112
162059
162111
162010
161948
161966
161889
161981
162046
162098
162149
162171
162212
162194
162158
162155
162157
162229
162220
162275
162304
162337
162261
162173
162239
162265
162230
162259
162128
162044
161952
161870
161844
161707
161661
161624
161710
161675
161563
161635
161670
161644
161792
161817
161818
161913
162017
161943
161844
161998
162090
162205
162288
162151
162196
162122
162160
162024
161925
162117
162094
161949
161991
161910
161974
162169
162189
162149
162186
162086
162174
162222
162185
162054
162075
162135
162174
162203
162144
162145
162198
162117
162056
162005
162064
162183
162178
162144
162132
162142
162228
162184
162106
162059
162135
162144
162168
162279
162234
162136
162258
162310
162251
162214
162172
162208
162155
162208
162186
162231
162322
162307
162399
162334
162279
162275
162336
162363
162431
162499
162421
162317
162361
162390
162427
162423
162318
162222
162222
162297
162386
162365
162312
162358
162404
162397
162453
162388
162246
162280
162329
162234
162306
162340
162328
162283
162159
162153
162196
162328
162329
162232
162171
162270
162348
162450
162349
162351
162266
162225
162176
162163
162157
162238
162397
162282
162281
162358
162311
162296
162352
162413
162317
162230
162260
162132
162175
162183
162162
162212
162336
162361
162377
162247
162245
162243
162213
162284
162347
162265
162150
162246
162233
162258
162320
162263
162343
162340
162229
162265
162282
162312
162316
162230
162314
162284
162313
162192
162123
162170
162215
162253
162284
162248
162297
162388
162380
162266
162187
162220
162159
162205
162250
162248
162258
162213
162174
162260
162395
162332
162288
162220
162341
162229
162235
162322
162372
162348
162251
162240
162290
162341
162329
162327
162309
162277
162217
162264
162254
162267
162300
162365
162541
162403
162302
162374
162374
162413
162374
162455
162380
162234
162197
162200
162269
162270
162238
162252
162205
162059
162174
162264
162239
162282
162357
162398
162363
162307
162247
162300
162361
162312
162249
162267
162290
162323
162363
162445
162456
162378
162342
162259
162361
162368
162380
162358
162334
162398
162413
162406
162351
162381
162443
162312
162241
162242
162346
162417
162395
162436
162478
162449
162380
162298
162313
162312
162389
162449
162336
162332
162379
162343
162296
162284
162256
162267
162334
162399
162367
162400
162205
162134
162333
162312
162313
162401
162350
162408
162470
162481
162515
162497
162474
162361
162311
162252
162418
162510
162598
162663
162495
162257
162200
162170
162176
162053
161900
161859
161822
161802
161816
161917
161950
161846
161861
162007
162006
161999
162141
162239
162292
162268
162335
162259
162221
162310
162417
162473
162428
162391
162357
162276
162271
162151
162261
162245
162239
162326
162374
162378
162346
162301
162308
162311
162351
162395
162425
162355
162301
162299
162414
162420
162364
162358
162359
162452
162511
162532
162329
162317
162437
162439
162440
162299
162441
162414
162439
162456
162436
162361
162375
162426
162493
162462
162411
162371
162382
162388
162358
162471
162445
162418
162402
162376
162545
162599
162606
162585
162463
162449
162530
162407
162378
162398
162502
162532
162700
162691
162422
162511
162571
162521
162418
162416
162450
162489
162508
162313
162276
162412
162440
162414
162385
162334
162258
162278
162351
162427
162377
162427
162328
162266
162337
162263
162217
162311
162319
162367
162384
162355
162346
162314
162346
162347
162262
162243
162338
162318
162346
162359
162387
162392
162273
162225
162293
162285
162249
162209
162189
162238
162321
162412
162433
162215
162135
162068
162172
162257
162249
162200
162239
162275
162348
162274
162212
162270
162281
162219
162143
162174
162221
162378
162386
162382
162359
162338
162330
162277
162185
162225
162345
162373
162296
162254
162343
162293
162282
162322
162364
162350
162330
162263
162312
162372
162344
162301
162279
162353
162283
162267
162328
162374
162465
162444
162382
162356
162367
162334
162357
162433
162404
162505
162411
162403
162247
162227
162392
162537
162367
162233
162264
162330
162314
162252
162316
162256
162178
162191
162300
162396
162605
162600
162489
162346
162370
162263
162226
162253
162222
162132
162292
162453
162437
162480
162444
162487
162495
162342
162303
162304
162337
162361
162268
162189
162260
162238
162310
162435
162491
162482
162473
162477
162549
162476
162320
162216
162194
162287
162357
162331
162384
162483
162477
162296
162213
162331
162366
162355
162273
162325
162270
162342
162359
162308
162252
162358
162406
162353
162288
162300
162283
162350
162409
162358
162346
162325
162396
162433
162437
162382
162342
162393
162381
162203
162358
162275
162292
162422
162375
162517
162571
162602
162506
162511
162624
162553
162506
162596
162533
162417
162249
162105
162186
162134
162034
162023
162053
162031
161897
161863
161932
161971
162003
161896
161978
162067
162122
162247
162114
162224
162403
162295
162364
162424
162455
162419
162414
162398
162418
162382
162344
162486
162538
162357
162270
162295
162353
162373
162399
162337
162333
162502
162364
162335
162356
162400
162394
162385
162350
162469
162477
162353
162419
162400
162383
162388
162535
162451
162445
162509
162461
162426
162369
162266
162374
162405
162367
162408
162401
162446
162462
162433
162385
162410
162442
162388
162346
162387
162401
162453
162612
162605
162418
162390
162505
162594
162538
162356
162227
162367
162560
162606
162534
162538
162609
162597
162545
162534
162418
162350
162419
162460
162418
162352
162365
162386
162436
162369
162290
162319
162383
162441
162409
162354
162500
162519
162489
162514
162348
162279
162285
162373
162359
162357
162462
162418
162307
162280
162341
162390
162341
162323
162405
162455
162320
162268
162268
162269
162343
162386
162446
162316
162217
162185
162263
162282
162235
162352
162307
162328
162362
162409
162428
162373
162347
162352
162374
162329
162327
162303
162311
162242
162188
162273
162401
162339
162322
162342
162344
162354
162351
162354
162373
162320
162346
162331
162260
162283
162230
162312
162273
162301
162305
162288
162436
162526
162466
162347
162290
162355
162409
162392
162421
162331
162382
162436
162425
162283
162267
162332
162439
162478
162406
162369
162492
162491
162345
162304
162333
162304
162329
162382
162356
162316
162387
162426
162486
162464
162386
162347
162344
162334
162379
162348
162400
162417
162502
162412
162347
162343
162300
162332
162373
162485
162446
162492
162390
162429
162479
162539
162516
162430
162411
162458
162531
162598
162500
162459
162336
162364
162514
162464
162423
162410
162391
162367
162357
162370
162357
162346
162395
162535
162502
162391
162440
162548
162483
162397
162407
162515
162528
162544
162455
162474
162470
162449
162508
162512
162423
162593
162574
162530
162490
162420
162259
162327
162408
162363
162295
162292
162253
162362
162583
162477
162396
162439
162488
162414
162367
162343
162408
162525
162510
162449
162402
162344
162253
162276
162271
162361
162473
162606
162642
162572
162553
162630
162597
162618
162588
162575
162499
162432
162424
162327
162209
162271
162261
162180
162019
161871
161844
161845
161841
161906
161983
162090
162143
162126
162144
162202
162161
162255
162377
162444
162453
162427
162387
162376
162383
162437
162440
162414
162497
162490
162539
162407
162423
162380
162284
162315
162374
162390
162495
162539
162561
162520
162562
162483
162548
162493
162412
162488
162487
162484
162431
162434
162399
162531
162566
162606
162556
162531
162534
162450
162493
162451
162358
162512
162486
162454
162457
162406
162552
162539
162520
162478
162490
162495
162522
162624
162570
162491
162433
162426
162498
162554
162562
162696
162587
162552
162506
162583
162543
162482
162481
162491
162565
162650
162553
162520
162513
162540
162558
162490
162559
162544
162563
162551
162493
162419
162429
162517
162596
162558
162560
162521
162388
162364
162400
162556
162539
162591
162563
162508
162477
162469
162402
162455
162380
162349
162351
162337
162321
162271
162343
162446
162453
162443
162373
162392
162376
162431
162429
162404
162374
162374
162417
162414
162390
162436
162426
162512
162526
162436
162472
162535
162525
162561
162418
162293
162346
162350
162370
162440
162430
162369
162408
162413
162376
162384
162423
162408
162418
162392
162426
162404
162400
162343
162245
162284
162290
162407
162470
162495
162455
162452
162486
162561
162548
162490
162436
162467
162526
162521
162481
162445
162492
162523
162356
162440
162474
162457
162435
162443
162485
162462
162594
162560
162497
162480
162487
162494
162437
162376
162420
162351
162350
162433
162495
162579
162631
162510
162448
162450
162406
162386
162431
162433
162383
162431
162475
162451
162422
162452
162558
162589
162614
162615
162543
162466
162515
162556
162563
162455
162469
162473
162479
162439
162305
162315
162408
162526
162571
162574
162597
162538
162524
162473
162389
162455
162457
162494
162455
162378
162452
162466
162503
162526
162436
162431
162491
162590
162616
162598
162467
162366
162395
162456
162412
162495
162451
162455
162449
162482
162503
162488
162503
162418
162385
162408
162554
162602
162506
162353
162333
162386
162435
162395
162431
162530
162497
162326
162314
162377
162466
162424
162441
162370
162362
162397
162324
162284
162338
162428
162560
162485
162490
162499
162352
162328
162256
162194
162210
162361
162527
162750
162614
162518
162399
162463
162554
162533
162551
162598
162593
162521
162493
162488
162560
162646
162709
162670
162569
162530
162385
162160
162102
162081
162032
161985
161912
161942
162008
161960
162044
162004
161983
162103
162131
162121
162225
162323
162381
162416
162444
162515
162529
162486
162417
162480
162496
162455
162362
162344
162329
162356
162560
162526
162459
162508
162560
162584
162494
162398
162466
162616
162630
162547
162466
162586
162555
162404
162457
162474
162551
162468
162468
162404
162436
162514
162525
162523
162490
162402
162445
162448
162454
162507
162611
162659
162567
162561
162511
162399
162371
162435
162386
162472
162470
162450
162481
162539
162644
162619
162464
162596
162717
162606
162482
162442
162331
162362
162443
162566
162678
162683
162639
162571
162476
162408
162457
162507
162577
162546
162567
162558
162562
162560
162517
162543
162523
162474
162526
162499
162467
162398
162361
162363
162390
162477
162455
162493
162449
162390
162358
162323
162404
162520
162422
162440
162433
162407
162380
162390
162388
162440
162386
162274
162250
162290
162413
162499
162394
162342
162440
162492
162426
162451
162375
162320
162417
162415
162410
162327
162352
162339
162345
162436
162472
162464
162434
162522
162481
162282
162283
162300
162331
162387
162386
162437
162498
162522
162502
162390
162373
162396
162441
162450
162370
162287
162313
162359
162317
162340
162309
162227
162287
162384
162339
162354
162319
162329
162365
162335
162409
162499
162486
162408
162306
162319
162454
162457
162421
162286
162325
162560
162451
162450
162504
162541
162486
162340
162238
162155
162189
162385
162369
162310
162284
162326
162374
162414
162431
162363
162389
162357
162404
162324
162318
162277
162311
162409
162402
162466
162469
162404
162366
162323
162300
162341
162328
162368
162485
162356
162285
162392
162394
162329
162354
162293
162246
162195
162247
162226
162319
162368
162483
162471
162329
162315
162270
162362
162390
162386
162284
162280
162338
162484
162558
162440
162302
162258
162234
162119
162160
162307
162436
162534
162406
162281
162304
162263
162207
162193
162243
162350
162428
162430
162349
162366
162421
162447
162416
162397
162386
162480
162342
162368
162347
162292
162357
162333
162386
162391
162391
162357
162330
162363
162251
162289
162418
162402
162343
162309
162245
162317
162348
162380
162235
162191
162241
162312
162413
162417
162473
162565
162633
162493
162429
162522
162506
162460
162466
162463
162486
162462
162366
162271
162189
162144
162104
161978
161782
161728
161855
161962
162026
161962
161910
161912
161955
161999
162002
161975
162194
162262
162321
162365
162422
162519
162560
162565
162387
162291
162412
162388
162315
162235
162185
162249
162321
162338
162428
162555
162502
162378
162278
162288
162349
162454
162422
162406
162426
162367
162451
162529
162428
162361
162322
162350
162348
162353
162433
162364
162522
162470
162302
162332
162350
162363
162354
162450
162440
162432
162456
162524
162404
162418
162455
162430
162500
162397
162357
162269
162279
162304
162393
162513
162456
162460
162429
162382
162425
162378
162419
162465
162454
162480
162437
162441
162439
162373
162365
162291
162302
162351
162387
162392
162337
162359
162391
162366
162365
162392
162400
162308
162226
162163
162123
162164
162242
162312
162338
162194
162127
162153
162135
162088
162105
162201
162253
162302
162316
162135
162115
162150
162174
162167
162225
162208
162113
162125
162128
162033
162104
162228
162196
162131
162057
162115
162144
162072
162074
162075
162109
162115
162161
162188
162167
162145
162161
162090
162000
162002
162090
162037
161986
162074
162088
162060
162048
162118
162192
162243
162232
162171
162201
162095

[HeartVoice API 返回]
# HeartVoice 专业 API 返回的聚合指标（不返回原始波形分析数据）
# 与下方 [算法提取后的结构化特征] 对照可定位本地算法差异
平均心率:107
最低心率:94
最高心率:119
诊断:SNT
QRS宽度:98
P波宽度:93
PR间期:131
QT间期:311
QTc:416
房性早搏:0
室性早搏:0
信号质量:0.94
导联反接:true
是否异常:true

[算法提取后的结构化特征]
# 由 EcgFeatureExtractor.extract() + toPromptText() 在手机端重建
# 与手表端发给 DeepSeek 的提示词文本一致（DS 实际收到的数据）
# 注意: 用户 profile（年龄性别）未存入测量记录，手机端重建时为'未知'
#       助手如需年龄性别做医学判断，需用户单独提供

[用户属性]

[全局指标]
采样率:500Hz 时长:30.6s 总点数:15320
R波检测:21个 平均心率:54bpm 范围:46-63bpm
R波位置(样本索引):696,922,1634,2459,2933,3446,3753,4243,4537,5639,6438,7047,8717,9366,10700,11247,12218,12542,14062,14797,15155
RR间期序列(ms，[*]为偏离均值>20%的异常间期，多为早搏/误检):[452*] [1424*] [1650*] 948 1026 [614*] 980 [588*] [2204*] [1598*] 1218 1298 1094 [1942*] [648*] [1470*] [716*]
RR差值序列(ms):972,226,-702,78,-412,366,-392,1616,-606,-380,80,-204,848,-1294,822,-754
SDNN:126.4ms RMSSD:150.2ms pNN50:80.0%
QRS宽度(本地估测,ms):50±9
PR间期(本地估测,ms):156±61
QT间期(本地估测,ms):433 QTc(Bazett):410ms QTc(Fridericia):418ms
R波平均振幅:0.38mV
R波极性:负向(负向提示导联反接/位置异常)
T/R振幅比:0.97(正常0.1-0.5，<0.1低平，>0.5高尖)
ST段偏移(本地估测,mV):-0.014(正常±0.05，>0.1抬高，<-0.1压低)
信号质量:0.85 良好

[节律判别特征]
RR变异系数:0.415(高度不规律)
Poincaré散点形态:扇形(高度不规律，疑似房颤)
短-长RR配对数(早搏代偿):3个

[逐秒分段]
时段(s)  R波  振幅范围(mV)  峰峰值(mV)  最大斜率(mV/s)  RMS(mV)
0.0-1.0  0  -0.54~0.37  0.90  153.00  0.20
1.0-2.0  2  -0.83~0.87  1.70  127.00  0.28  ← 短RR+代偿间隙(早搏可能)
2.0-3.0  0  -0.99~0.65  1.64  128.50  0.41  ← 代偿间隙(配合前秒短RR)
3.0-4.0  1  -0.68~0.36  1.04  134.50  0.18
4.0-5.0  1  -0.94~0.69  1.63  143.00  0.29
5.0-6.0  1  -0.70~0.48  1.17  170.00  0.19
6.0-7.0  1  -0.65~0.62  1.28  112.50  0.30
7.0-8.0  1  -0.62~0.31  0.93  117.50  0.16
8.0-9.0  1  -1.42~0.87  2.29  125.50  0.53
9.0-10.0  1  -0.90~0.83  1.73  124.00  0.40
10.0-11.0  0  -0.88~0.58  1.46  133.00  0.24  ← 本秒无R波(心率<60或代偿间隙)
11.0-12.0  1  -0.96~0.67  1.62  122.00  0.33
12.0-13.0  1  -0.64~0.50  1.15  125.50  0.19
13.0-14.0  0  -0.70~0.83  1.53  120.50  0.43  ← 本秒无R波(心率<60或代偿间隙)
14.0-15.0  1  -0.54~0.33  0.88  132.00  0.15
15.0-16.0  0  -0.77~0.38  1.15  142.00  0.18  ← 本秒无R波(心率<60或代偿间隙)
16.0-17.0  0  -0.80~0.54  1.35  124.00  0.27  ← 本秒无R波(心率<60或代偿间隙)
17.0-18.0  1  -0.93~1.40  2.32  116.00  0.61
18.0-19.0  1  -0.64~0.31  0.96  142.00  0.15
19.0-20.0  0  -0.78~0.66  1.44  166.50  0.24  ← 本秒无R波(心率<60或代偿间隙)
20.0-21.0  0  -0.82~0.73  1.55  138.00  0.30  ← 本秒无R波(心率<60或代偿间隙)
21.0-22.0  1  -0.62~0.45  1.07  126.00  0.19
22.0-23.0  1  -1.18~0.73  1.91  132.00  0.39
23.0-24.0  0  -0.91~1.01  1.92  128.00  0.43  ← 本秒无R波(心率<60或代偿间隙)
24.0-25.0  1  -0.62~0.52  1.13  132.00  0.24
25.0-26.0  1  -0.60~0.44  1.04  121.50  0.16
26.0-27.0  0  -0.52~0.27  0.80  110.50  0.12  ← 本秒无R波(心率<60或代偿间隙)
27.0-28.0  0  -0.71~0.43  1.14  134.50  0.17  ← 本秒无R波(心率<60或代偿间隙)
28.0-29.0  1  -0.52~0.28  0.80  110.50  0.13
29.0-30.0  1  -0.54~0.30  0.84  112.50  0.11
逐秒RMS:0.203,0.277,0.412,0.179,0.294,0.192,0.297,0.156,0.526,0.401,0.241,0.331,0.186,0.427,0.148,0.184,0.269,0.612,0.154,0.241,0.301,0.186,0.392,0.427,0.242,0.161,0.118,0.165,0.131,0.115

[AI 解读]
# DeepSeek 返回的原始 JSON（未清洗，可能含 markdown 代码块包裹）
本次测量未使用 AI 分析（分析方法非 ds_*）
