========== ECG 算法诊断包 ==========
测量时间: 2026-07-16 20:10:09
测量时间戳:1784203809063
采样率:500 Hz
数据点数:15460
时长:30.9 秒
分析方法:heartvoice

[原始 ECG 数据]
# 单位: mV×1000 整数（如 500 = 0.5mV，-1000 = -1.0mV）
# 采样率: 500 Hz，连续采样，无降采样无压缩
# 用途: 助手据此复现本地算法行为（基线漂移/噪声段/R波检测）
# 格式: 每行一个数值，行号=采样点索引（第1行=索引0，即 t=0.000s）
157707
157764
157798
157828
157772
157758
157760
157740
157775
157716
157770
157812
157801
157744
157708
157717
157802
157738
157717
157746
157794
157785
157716
157686
157729
157744
157742
157797
157815
157894
157914
157857
157948
157935
157917
157932
157910
157848
157944
158022
158006
158045
158000
157990
158012
157962
157955
157891
157801
157811
157875
157970
158069
158007
157987
158032
158072
158048
158010
158032
158067
158085
158065
158008
157995
157961
158042
158032
157955
157945
158003
158098
158116
158037
157950
157974
158032
158088
158163
158090
158052
158021
157998
157987
157960
157911
157940
157919
157877
157903
157948
158084
158094
158002
158021
158013
158068
158099
158131
158074
158032
158084
158154
158186
158137
158081
158084
158093
158045
158007
157991
158080
158138
158188
158169
158126
158099
158062
158028
158041
157986
158006
158011
158038
158166
158252
158244
158239
158132
158111
158110
158114
158137
158196
158154
158054
158115
158110
158129
158187
158182
158239
158267
158231
158235
158228
158251
158233
158219
158257
158241
158285
158258
158238
158260
158252
158326
158363
158393
158323
158306
158325
158373
158472
158463
158450
158457
158428
158420
158412
158443
158515
158447
158474
158462
158403
158467
158552
158621
158549
158446
158482
158534
158507
158594
158608
158589
158607
158558
158535
158509
158554
158610
158595
158612
158509
158521
158516
158518
158651
158590
158701
158723
158752
158762
158714
158690
158662
158671
158699
158746
158931
158929
158896
158899
158825
158804
158835
158810
158814
158794
158817
158818
158814
158890
158862
158817
158822
158917
158929
158877
158896
158828
158777
158718
158690
158815
158936
158929
158853
158846
158843
158823
158890
159021
159001
159085
158995
158966
159047
159016
159028
159039
159069
159073
159034
159057
159049
158993
158989
158983
159108
159344
159358
159301
159272
159271
159221
159233
159236
159223
159185
159228
159263
159270
159328
159236
159165
159160
159270
159271
159251
159236
159255
159261
159186
159226
159234
159234
159216
159233
159309
159372
159323
159325
159296
159400
159389
159302
159197
159222
159410
159485
159434
159391
159380
159371
159395
159444
159498
159455
159500
159481
159447
159439
159412
159455
159421
159437
159466
159471
159554
159646
159740
159693
159584
159659
159706
159681
159663
159658
159708
159642
159592
159589
159437
159348
159328
159325
159247
159257
159271
159271
159259
159340
159333
159403
159412
159340
159372
159348
159449
159469
159562
159687
159687
159640
159659
159590
159571
159601
159661
159671
159675
159653
159563
159622
159709
159658
159634
159639
159634
159670
159659
159677
159671
159708
159715
159691
159659
159577
159659
159695
159762
159810
159792
159882
159914
159815
159768
159772
159825
159819
159869
159908
159913
159929
159918
159888
159856
159839
159861
159916
159977
159989
159935
159934
159881
159888
159921
159913
159971
159931
159942
160008
160086
160085
159972
159945
159937
159885
159915
160008
160044
160015
159896
159957
160013
160034
160037
159968
160051
160065
160040
160037
160019
160027
160028
160114
160090
160062
160100
160141
160142
160163
160151
160223
160210
160125
160174
160240
160232
160225
160254
160260
160201
160188
160135
160106
160132
160131
160110
160179
160208
160276
160201
160088
160069
160098
160110
160117
160137
160141
160211
160209
160075
160000
160046
160057
160123
160157
160118
160104
160116
160132
160178
160166
160203
160221
160147
160085
160083
160047
160046
160080
160124
160140
160157
160185
160096
160035
160103
160122
160250
160243
160198
160160
160182
160205
160161
160071
160082
160123
160140
160204
160298
160400
160384
160315
160356
160370
160343
160283
160288
160313
160367
160420
160391
160321
160299
160273
160291
160332
160408
160380
160252
160276
160235
160211
160263
160316
160378
160365
160354
160323
160252
160275
160283
160264
160253
160164
160208
160258
160310
160382
160346
160327
160292
160261
160210
160207
160279
160298
160286
160178
160130
160144
160152
160188
160141
160120
160233
160293
160360
160318
160241
160275
160211
160168
160203
160168
160219
160260
160316
160303
160302
160278
160351
160392
160371
160303
160303
160347
160337
160349
160318
160406
160528
160605
160504
160437
160481
160409
160391
160405
160420
160403
160491
160532
160478
160436
160491
160458
160460
160465
160420
160446
160487
160503
160471
160456
160453
160456
160456
160360
160364
160407
160511
160477
160443
160405
160424
160405
160452
160469
160454
160500
160467
160445
160421
160380
160416
160401
160413
160461
160385
160440
160424
160353
160331
160318
160339
160438
160408
160395
160410
160399
160363
160360
160404
160390
160444
160502
160500
160540
160524
160555
160511
160516
160500
160491
160521
160491
160438
160434
160386
160463
160585
160568
160618
160561
160553
160544
160475
160460
160429
160498
160530
160590
160520
160451
160485
160523
160543
160528
160571
160600
160569
160582
160535
160539
160535
160479
160455
160431
160392
160389
160418
160530
160537
160475
160399
160345
160374
160478
160429
160430
160390
160369
160279
160211
160268
160320
160389
160413
160430
160433
160396
160392
160326
160239
160269
160312
160362
160370
160371
160506
160471
160438
160406
160382
160407
160379
160357
160385
160471
160512
160505
160589
160483
160399
160443
160455
160469
160471
160405
160444
160495
160474
160456
160365
160466
160495
160492
160536
160554
160504
160446
160442
160393
160377
160466
160507
160561
160544
160505
160470
160489
160534
160478
160344
160375
160412
160408
160461
160470
160566
160561
160539
160524
160446
160456
160429
160436
160496
160491
160491
160451
160395
160332
160281
160298
160350
160420
160394
160286
160376
160383
160376
160371
160292
160308
160421
160400
160300
160232
160194
160125
160122
160247
160325
160346
160282
160269
160246
160221
160239
160293
160313
160279
160285
160311
160288
160252
160267
160269
160350
160331
160368
160304
160299
160291
160259
160239
160250
160282
160279
160275
160257
160315
160274
160260
160343
160349
160318
160229
160195
160230
160268
160340
160309
160304
160297
160252
160209
160193
160230
160273
160306
160295
160255
160280
160281
160256
160301
160368
160430
160472
160511
160516
160459
160440
160503
160485
160457
160471
160390
160253
160170
160072
159932
159779
159775
159801
160001
160037
159974
159957
159954
159968
159976
160009
159996
160031
160046
159988
160104
160144
160097
160064
160067
160198
160184
160188
160170
160130
160221
160300
160230
160154
160082
159997
159958
160102
160146
160086
160105
160139
160076
160060
159989
160038
160078
160133
160189
160184
160217
160218
160156
160182
160142
160164
160165
160119
160104
160112
160256
160258
160205
160182
160163
160174
160144
160157
160223
160186
160169
160189
160166
160219
160165
160169
160117
160139
160138
160205
160247
160240
160145
160105
160118
160195
160212
160202
160178
160186
160295
160263
160262
160247
160193
160203
160204
160223
160282
160284
160275
160222
160273
160294
160229
160242
160185
160230
160252
160236
160278
160275
160273
160320
160298
160310
160280
160220
160179
160193
160330
160334
160263
160232
160220
160224
160225
160176
160159
160168
160167
160155
160144
160145
160114
160204
160202
160165
160163
160159
160182
160242
160201
160225
160137
160141
160171
160125
160103
160064
160109
160173
160233
160277
160194
160187
160156
160131
160106
160098
160116
160102
160108
160125
160086
160101
160099
160045
160073
160132
160138
160219
160229
160156
160062
160067
160072
160067
160121
160058
160139
160186
160107
160030
159966
160040
160178
160252
160205
160092
160095
160144
160056
160037
160017
160004
160038
160008
159965
159981
160004
160076
160091
160035
160027
160099
160187
160150
160061
160011
160079
160097
160058
160026
159978
160056
160063
159999
159984
159968
159993
160077
160065
160073
159988
160077
160176
160122
160114
160125
160111
160092
160034
159985
159970
159956
159906
159912
160027
160065
160107
160046
159975
159957
159849
159912
159898
159889
159939
159991
160017
160049
160058
159999
160016
160084
160050
160039
160031
159965
159989
160059
160052
159992
159973
159996
160043
160013
160004
159968
160002
160068
160081
160118
160024
160024
160009
160045
160130
160177
160183
160157
160099
160088
160081
160099
160120
160071
159970
159978
160058
160179
160192
160152
160111
160107
160082
160060
160050
160017
159980
159982
160002
160046
160087
160045
159984
160006
159966
159993
159979
160005
159943
159857
159798
159848
159902
159906
159975
159912
159952
160044
159964
159883
159854
159939
160019
160012
160031
159935
159999
160056
160043
159990
159928
159910
159936
160042
160051
160036
160069
160024
160027
159998
159975
160012
159942
160017
160089
160024
159994
160049
160023
160000
159978
160021
160004
160019
160035
159952
160031
160025
160000
160087
160114
160077
160001
159996
160036
160029
160100
160114
160089
160062
159947
159873
159912
159973
160066
160085
160072
160089
160065
160067
160022
160014
159993
160013
160167
160125
160122
160160
160097
160012
159987
160015
160074
160036
160008
160041
160312
160242
160221
160194
160172
160196
160252
160216
160225
160182
160167
160175
160178
160184
160173
160210
160192
160200
160260
160198
160269
160237
160265
160300
160278
160249
160243
160223
160213
160253
160316
160414
160437
160394
160251
160273
160323
160280
160264
160323
160380
160396
160403
160469
160505
160498
160407
160385
160390
160333
160363
160400
160383
160370
160346
160366
160384
160427
160389
160420
160447
160492
160499
160549
160495
160452
160386
160325
160375
160379
160503
160556
160558
160516
160522
160520
160507
160519
160510
160432
160473
160547
160567
160495
160493
160480
160533
160524
160546
160593
160640
160620
160558
160577
160498
160498
160574
160551
160650
160701
160640
160605
160569
160588
160524
160491
160458
160567
160693
160800
160858
160784
160743
160646
160562
160578
160607
160733
160751
160658
160638
160640
160621
160672
160694
160661
160695
160681
160667
160675
160685
160687
160693
160676
160663
160692
160746
160779
160728
160646
160633
160694
160825
160888
160786
160837
160886
160781
160792
160844
160911
160939
160904
160872
160809
160841
160968
160961
160931
160933
160994
161108
161157
161151
161131
161169
161154
161094
161139
161075
161070
161063
160962
160944
160805
160686
160619
160661
160792
160742
160704
160730
160774
160746
160666
160704
160756
160858
160894
160951
160945
161059
161153
161144
161108
161096
161188
161191
161151
161096
161057
161081
161053
161021
161034
161045
161132
161304
161249
161145
161183
161206
161240
161240
161176
161223
161217
161201
161252
161214
161222
161290
161414
161397
161235
161229
161282
161294
161311
161275
161294
161274
161273
161275
161228
161288
161428
161425
161384
161330
161344
161367
161385
161365
161293
161411
161384
161405
161414
161382
161389
161455
161493
161419
161410
161488
161484
161476
161507
161518
161571
161610
161591
161593
161555
161550
161501
161463
161492
161566
161654
161691
161669
161722
161692
161704
161670
161606
161676
161688
161878
161916
161889
161833
161764
161773
161715
161731
161858
161772
161765
161734
161771
161807
161734
161814
161793
161793
161895
161926
161953
161912
161858
161801
161804
161867
161888
161907
161902
161821
161870
161869
161889
161938
161797
161794
161798
161772
161845
161751
161818
161891
161951
161924
161874
161930
161917
161879
161818
161755
161782
161792
161738
161764
161752
161797
161829
161893
161847
161760
161765
161866
161879
161908
161814
161886
161875
161875
161872
161856
161864
161896
161968
161899
161835
161909
161912
161912
161939
161884
161980
162005
162030
161991
161923
161904
161856
161855
161848
161850
161921
161946
162001
161948
161895
161953
161897
161938
161972
161948
161979
161903
161858
161807
161839
161963
162006
161916
161868
161818
161942
162011
161980
161976
161940
161951
161930
161952
161874
161781
161771
161896
161971
161919
161839
161868
161846
161832
161800
161750
161802
161878
161898
161866
161774
161796
161833
161768
161904
161901
161864
161823
161858
161911
161938
161961
161967
161934
161886
161878
161945
161908
161930
161859
161826
161867
161957
161992
161959
161868
161925
161917
161867
161822
161787
161810
161940
162024
161979
161960
161936
161953
161961
161895
161825
161861
161888
161862
161891
161862
161899
161838
161836
161915
161958
162022
162043
161934
161933
161870
161898
161903
161930
161910
161896
161876
161875
161817
161835
161859
161883
161835
161896
161922
161891
161942
161919
161825
161828
161846
161895
161929
161872
161797
161761
161849
161952
161929
161897
161859
161897
161911
161920
161935
161891
161857
161811
161801
161844
161835
161990
162042
161961
161935
161914
161919
161909
161876
161911
161913
161892
161981
161966
161919
161874
161934
161981
161940
161942
161930
161973
161965
161958
161959
161906
161851
161796
161782
161859
161933
161930
161974
161906
161944
161925
161978
161977
161943
161888
161864
161889
161878
161854
161841
161852
161907
161960
161949
161912
161837
161860
161893
161884
161893
161831
161888
161939
162005
161950
161904
161941
161973
161971
161951
161902
161937
161987
161955
161963
161915
161908
161917
161956
162068
162010
161975
161955
161845
161884
161891
161969
162078
162048
162032
161982
161994
161956
161970
161991
161888
161929
161993
162116
162156
162114
162153
162111
162050
162032
162055
162072
162024
162066
162118
162072
162116
162055
162065
162094
162150
162176
162168
162174
162159
161995
162035
162091
162097
162126
162066
162108
162051
162097
162126
162155
162127
162099
162151
162175
162102
162121
162092
162171
162176
162092
162077
162038
162040
162040
162030
162110
162134
162099
162094
162014
162045
162097
162030
162003
161909
161948
161951
161978
162055
161965
162016
162020
162019
162001
162015
162051
162028
161993
162044
162034
161997
161983
162040
162050
162056
162060
162002
161946
161996
162002
162065
162152
162097
162012
161952
162039
162090
162134
162090
162017
162035
162082
162022
162055
162095
162179
162220
162250
162278
162244
162275
162271
162241
162181
162142
162174
162193
162118
162091
161964
161867
161764
161656
161577
161486
161546
161633
161805
161847
161773
161809
161785
161764
161789
161819
161897
161900
161968
161991
161948
162035
162042
162017
162021
161988
162014
162027
162035
162020
161993
162022
161956
161889
161905
161941
161996
161973
162058
162068
162056
162051
161980
161891
161854
161871
161988
162011
162023
161973
162037
162081
162026
161960
161964
161903
161943
161980
162011
161993
161986
161954
161987
161985
161920
161891
161936
161913
161957
161982
161968
162061
161999
161957
161921
161873
161895
161896
161921
161937
161943
161920
161917
161903
161921
161948
161944
161993
161953
161969
161879
161836
161806
161804
161801
161784
161837
161858
161841
161841
161830
161930
161913
161905
161873
161822
161876
161876
161854
161827
161793
161823
161823
161802
161775
161843
161936
161983
161957
161910
161852
161835
161796
161801
161728
161763
161843
161842
161869
161855
161781
161779
161781
161716
161754
161671
161667
161759
161743
161721
161731
161736
161670
161648
161718
161687
161624
161644
161610
161595
161587
161689
161724
161701
161699
161692
161684
161665
161697
161624
161558
161575
161710
161736
161692
161636
161632
161698
161748
161720
161706
161743
161726
161745
161708
161666
161619
161640
161674
161740
161705
161719
161792
161779
161788
161697
161700
161719
161760
161669
161565
161697
161744
161743
161769
161687
161702
161721
161717
161742
161750
161691
161673
161675
161689
161647
161711
161763
161689
161664
161589
161548
161530
161589
161558
161637
161730
161762
161714
161714
161677
161676
161640
161604
161533
161491
161630
161609
161558
161562
161512
161511
161611
161640
161625
161538
161539
161512
161439
161466
161491
161632
161726
161685
161606
161504
161566
161629
161653
161718
161730
161752
161698
161666
161620
161570
161611
161777
161743
161697
161758
161765
161760
161722
161725
161642
161707
161773
161831
161901
161830
161771
161711
161666
161689
161759
161831
161814
161764
161665
161629
161667
161801
161813
161843
161829
161830
161835
161807
161720
161673
161793
161807
161778
161748
161714
161727
161721
161725
161743
161770
161811
161764
161748
161739
161675
161643
161651
161788
161853
161781
161775
161742
161757
161722
161639
161656
161759
161816
161824
161855
161839
161818
161805
161795
161785
161794
161830
161805
161732
161714
161841
161908
161988
162014
161924
161900
161902
161904
161948
161893
161912
161957
161968
162001
161999
162044
162076
162065
162033
162000
161995
162002
162029
162044
162069
162136
162114
162111
162090
162084
162078
162108
162057
162110
162135
162140
162130
162103
162148
162091
162113
162171
162183
162189
162202
162223
162208
162207
162212
162118
162202
162284
162229
162203
162154
162170
162274
162219
162219
162177
162258
162307
162342
162326
162234
162233
162247
162257
162197
162204
162351
162432
162403
162378
162359
162332
162313
162267
162217
162198
162282
162370
162436
162522
162466
162427
162432
162381
162359
162380
162400
162452
162480
162492
162440
162393
162484
162514
162510
162463
162423
162546
162551
162478
162432
162441
162553
162628
162613
162563
162625
162631
162606
162545
162484
162516
162545
162536
162549
162565
162621
162744
162749
162709
162615
162601
162593
162650
162662
162660
162710
162666
162672
162688
162672
162681
162675
162723
162765
162690
162710
162728
162736
162725
162628
162655
162691
162781
162750
162776
162778
162751
162732
162659
162655
162714
162971
162946
162893
162880
162868
162839
162832
162815
162721
162795
162834
162863
162898
162906
162915
162953
162918
162919
162849
162933
163013
163041
163022
162967
163040
163093
163152
163335
163332
163288
163318
163304
163279
163248
163199
163092
162975
162933
162892
162924
162909
162837
162822
162793
162826
162827
162826
162797
162787
162864
162909
162913
163016
163071
163180
163243
163270
163259
163202
163255
163184
163183
163260
163324
163498
163554
163538
163506
163439
163467
163451
163401
163377
163386
163484
163582
163622
163613
163544
163604
163568
163557
163570
163548
163611
163686
163690
163652
163546
163530
163579
163677
163758
163805
163840
163805
163818
163782
163708
163685
163673
163699
163755
163777
163823
163841
163846
163881
163920
163914
163847
163875
163887
163869
163921
163900
163891
163896
163863
163909
163956
163931
163913
163863
163878
163878
163908
163882
163939
163921
163934
163939
163985
164020
164120
164066
164057
164080
164002
164007
164050
164037
164110
164142
164176
164179
164219
164241
164213
164147
164116
164126
164192
164195
164233
164212
164157
164167
164196
164220
164215
164202
164210
164233
164262
164273
164219
164177
164088
164053
164031
164065
164137
164130
164179
164249
164245
164230
164123
164110
164182
164222
164293
164157
164196
164221
164178
164170
164160
164170
164138
164248
164239
164258
164323
164253
164307
164300
164219
164284
164291
164245
164291
164288
164275
164252
164296
164407
164423
164426
164390
164408
164443
164405
164385
164376
164347
164362
164367
164481
164577
164567
164504
164411
164463
164521
164539
164539
164484
164497
164434
164371
164380
164446
164525
164596
164702
164687
164554
164488
164503
164513
164546
164589
164591
164460
164516
164521
164529
164523
164460
164458
164535
164540
164527
164477
164471
164498
164474
164488
164426
164419
164427
164403
164513
164531
164481
164442
164351
164304
164360
164403
164334
164320
164403
164435
164468
164459
164406
164372
164365
164339
164352
164346
164390
164381
164399
164396
164375
164403
164459
164498
164450
164366
164389
164429
164397
164365
164344
164399
164393
164418
164456
164447
164554
164530
164526
164466
164290
164270
164401
164580
164524
164550
164613
164549
164529
164511
164455
164407
164419
164477
164456
164418
164475
164468
164462
164441
164406
164402
164433
164461
164387
164326
164308
164419
164453
164383
164304
164336
164348
164301
164321
164343
164370
164432
164465
164501
164385
164359
164369
164367
164372
164327
164347
164315
164282
164290
164337
164367
164373
164450
164392
164343
164380
164397
164405
164353
164290
164307
164296
164294
164351
164341
164344
164387
164354
164426
164390
164406
164376
164341
164352
164317
164360
164399
164413
164438
164383
164397
164407
164370
164304
164253
164302
164364
164418
164427
164400
164385
164400
164396
164377
164288
164375
164459
164436
164456
164427
164478
164483
164457
164404
164309
164412
164480
164527
164586
164516
164415
164361
164402
164475
164409
164491
164496
164501
164475
164423
164356
164310
164331
164337
164278
164345
164437
164492
164453
164386
164423
164415
164340
164329
164315
164356
164401
164472
164502
164475
164545
164471
164457
164361
164344
164371
164424
164441
164447
164390
164396
164410
164382
164386
164375
164440
164439
164463
164352
164335
164316
164318
164400
164354
164282
164312
164383
164404
164389
164352
164308
164287
164340
164290
164286
164358
164356
164294
164258
164225
164259
164314
164338
164328
164290
164297
164324
164325
164283
164207
164201
164203
164183
164116
164068
164148
164210
164215
164225
164176
164176
164192
164230
164218
164211
164245
164233
164249
164276
164185
164224
164257
164285
164254
164236
164201
164169
164147
164174
164142
164226
164332
164302
164235
164181
164195
164210
164163
164131
164051
164036
164098
164125
164128
164162
164154
164174
164124
164149
164047
164052
164090
164033
164033
164078
164158
164134
164133
164177
164059
164048
164051
164040
164092
164129
164151
164141
164147
164129
164071
164072
164032
164024
164088
164095
164075
164129
164106
164188
164267
164237
164259
164274
164259
164182
164191
164193
164121
164076
163934
163958
164036
164048
163940
163713
163669
163611
163673
163583
163466
163470
163525
163653
163656
163610
163664
163683
163742
163805
163737
163762
163760
163761
163824
163862
163816
163837
163820
163844
163819
163853
163827
163839
163839
163767
163775
163749
163708
163760
163709
163705
163753
163769
163799
163774
163796
163948
163883
163869
163766
163724
163745
163731
163744
163721
163855
163897
163815
163759
163722
163689
163699
163694
163783
163776
163863
163843
163829
163793
163711
163707
163677
163613
163613
163662
163644
163658
163645
163662
163660
163627
163638
163626
163645
163659
163738
163773
163784
163661
163548
163619
163647
163634
163659
163669
163618
163623
163606
163645
163678
163665
163652
163650
163654
163654
163690
163728
163674
163682
163643
163727
163662
163693
163735
163672
163742
163708
163766
163734
163635
163609
163556
163618
163645
163625
163686
163695
163677
163717
163640
163549
163624
163598
163544
163503
163479
163554
163607
163651
163649
163564
163436
163432
163467
163502
163470
163456
163478
163436
163335
163279
163309
163336
163359
163295
163329
163345
163319
163258
163189
163295
163275
163313
163337
163241
163309
163336
163391
163463
163322
163347
163391
163344
163320
163235
163269
163281
163382
163471
163380
163313
163333
163322
163291
163317
163344
163311
163255
163242
163278
163407
163455
163408
163382
163291
163319
163339
163278
163314
163291
163287
163298
163272
163255
163234
163237
163268
163309
163298
163255
163339
163312
163239
163208
163219
163272
163254
163274
163304
163297
163252
163187
163197
163156
163161
163219
163298
163247
163139
163049
163066
163084
163120
163159
163161
163267
163237
163207
163182
163051
163035
163013
162978
162956
163041
163214
163277
163246
163204
163097
163079
163096
163086
163058
163009
163068
163132
163051
163088
163181
163200
163135
163154
163114
163030
163080
163067
163078
163107
163075
163095
163162
163142
163100
163005
163071
163122
163096
163086
163000
162991
163032
163007
163028
163001
162993
163028
162985
162994
162874
162922
162900
162815
162872
162880
162935
162983
162887
162901
162984
163003
163035
162984
162959
162859
162848
162835
162840
162840
162866
162909
162878
162794
162830
162801
162883
162938
162912
162899
162834
162809
162811
162829
162860
162791
162769
162714
162725
162771
162813
162825
162730
162715
162686
162704
162840
162854
162854
162803
162757
162748
162749
162717
162796
162790
162841
162852
162835
162785
162738
162800
162795
162812
162818
162746
162812
162857
162852
162861
162786
162774
162789
162786
162675
162670
162730
162755
162741
162804
162802
162785
162771
162744
162677
162602
162729
162840
162817
162784
162766
162854
162837
162752
162718
162666
162762
162780
162815
162840
162837
162805
162707
162646
162713
162687
162783
162770
162791
162835
162752
162716
162703
162696
162694
162637
162730
162765
162794
162818
162726
162701
162604
162562
162546
162608
162717
162782
162799
162741
162708
162728
162734
162702
162715
162666
162655
162665
162689
162755
162715
162745
162720
162676
162671
162638
162668
162645
162619
162664
162692
162851
162779
162735
162643
162592
162716
162767
162793
162705
162658
162755
162702
162638
162616
162580
162603
162650
162668
162776
162758
162757
162689
162588
162584
162530
162572
162613
162576
162674
162655
162658
162598
162621
162631
162575
162571
162568
162547
162519
162528
162577
162631
162555
162495
162491
162590
162544
162510
162509
162480
162546
162515
162437
162439
162435
162489
162531
162561
162563
162518
162596
162575
162580
162591
162615
162804
162843
162766
162683
162606
162643
162568
162413
162329
162258
162234
162205
162301
162239
162117
162126
162130
162103
162060
161997
162045
162103
162124
162122
162198
162352
162303
162338
162310
162228
162266
162299
162275
162222
162234
162264
162297
162244
162198
162157
162202
162243
162230
162214
162092
162109
162161
162272
162297
162260
162290
162221
162153
162122
162077
162111
162198
162306
162243
162148
162168
162117
162075
162024
162009
162152
162235
162211
162171
162130
162111
162068
162026
162049
162057
162051
162056
162087
162025
161940
161945
161871
161943
162098
162056
161974
161908
161831
161870
161807
161772
161856
161903
161933
161925
161924
161869
161826
161762
161758
161775
161838
161862
161775
161769
161794
161854
161782
161721
161668
161701
161706
161805
161876
161838
161830
161780
161728
161693
161684
161691
161726
161736
161732
161757
161864
161733
161669
161716
161678
161708
161710
161641
161641
161637
161691
161653
161644
161662
161549
161613
161631
161633
161623
161503
161557
161578
161544
161511
161437
161468
161525
161534
161540
161455
161435
161461
161416
161380
161382
161465
161475
161446
161443
161536
161511
161480
161394
161333
161324
161320
161324
161447
161545
161454
161436
161418
161414
161405
161386
161383
161402
161443
161441
161427
161487
161427
161428
161485
161544
161632
161573
161537
161459
161437
161414
161446
161537
161505
161459
161423
161441
161460
161491
161428
161403
161356
161403
161440
161459
161442
161455
161540
161479
161388
161405
161441
161439
161443
161402
161395
161367
161322
161344
161279
161282
161262
161392
161493
161433
161431
161446
161418
161376
161344
161346
161382
161421
161405
161293
161293
161298
161294
161433
161410
161393
161432
161468
161423
161365
161337
161286
161273
161326
161410
161504
161488
161381
161314
161262
161371
161431
161532
161630
161502
161488
161459
161449
161446
161355
161404
161427
161488
161466
161520
161552
161556
161559
161486
161343
161339
161325
161359
161423
161441
161433
161443
161463
161484
161455
161491
161474
161425
161424
161380
161404
161394
161407
161443
161421
161439
161446
161473
161450
161407
161414
161435
161383
161272
161262
161352
161362
161421
161454
161415
161419
161386
161404
161404
161360
161404
161356
161358
161371
161395
161456
161451
161446
161375
161381
161442
161471
161441
161474
161422
161404
161370
161421
161524
161505
161387
161331
161417
161446
161460
161450
161528
161574
161607
161556
161582
161599
161542
161526
161524
161531
161531
161503
161455
161446
161503
161510
161521
161563
161550
161544
161543
161541
161521
161504
161478
161449
161507
161596
161537
161596
161568
161545
161488
161453
161468
161495
161569
161586
161609
161496
161532
161558
161611
161625
161635
161564
161521
161481
161447
161563
161624
161549
161554
161511
161533
161553
161598
161620
161559
161545
161555
161546
161590
161641
161620
161580
161586
161582
161577
161613
161609
161595
161549
161501
161547
161566
161665
161722
161676
161683
161702
161642
161621
161533
161566
161623
161658
161683
161619
161648
161746
161766
161743
161792
161837
161811
161762
161678
161562
161622
161669
161771
161787
161635
161690
161764
161746
161838
161829
161846
161813
161744
161712
161679
161730
161792
161833
161853
161809
161846
161868
161809
161766
161731
161792
161876
161839
161854
161888
161884
161905
161908
161882
161803
161839
161872
161880
161926
161934
162000
161979
162002
162008
161979
162003
162066
162139
162150
162233
162266
162212
162158
162133
162078
162028
161961
161965
161907
161768
161676
161616
161672
161691
161670
161723
161717
161686
161739
161808
161948
162003
161988
161985
162003
162081
162107
162126
162192
162169
162193
162212
162171
162182
162205
162215
162212
162232
162288
162295
162301
162333
162363
162352
162349
162417
162460
162392
162414
162382
162391
162409
162388
162344
162294
162400
162451
162509
162503
162478
162560
162641
162642
162632
162558
162573
162548
162563
162630
162619
162667
162700
162705
162669
162602
162661
162703
162781
162801
162676
162664
162731
162723
162724
162709
162704
162724
162745
162758
162778
162820
162831
162860
162841
162766
162802
162788
162838
162777
162682
162783
162930
162964
162934
162887
162913
162872
162890
162859
162807
162890
163000
163084
163031
162982
162996
162983
162994
162996
162991
163076
163066
163030
163033
162961
162932
162959
163006
163027
163038
163090
163095
163106
163117
163037
162979
163026
163052
163058
163023
162970
163004
163022
163024
162978
162997
162968
163026
163083
163034
162968
163008
163042
163022
163012
163027
162983
162967
162972
162912
162952
163041
163076
163031
162906
162923
163022
163052
163051
163033
163134
163192
163112
163075
163050
163059
163042
163050
163133
163137
163162
163093
163052
163078
163094
163128
163086
163159
163204
163258
163252
163256
163220
163201
163183
163220
163207
163249
163297
163209
163237
163273
163239
163225
163184
163245
163272
163290
163323
163310
163343
163300
163253
163227
163163
163236
163173
163183
163220
163218
163226
163263
163290
163268
163230
163214
163199
163219
163235
163174
163203
163188
163175
163191
163190
163272
163237
163219
163159
163095
163198
163255
163314
163404
163285
163289
163258
163210
163163
163200
163260
163331
163337
163323
163345
163339
163309
163319
163336
163234
163290
163354
163265
163195
163219
163216
163260
163356
163378
163363
163364
163383
163425
163398
163304
163342
163414
163374
163340
163337
163404
163290
163284
163248
163253
163365
163384
163380
163331
163248
163290
163361
163406
163364
163218
163175
163160
163224
163323
163317
163343
163410
163352
163343
163228
163205
163224
163280
163255
163207
163328
163350
163284
163251
163274
163300
163278
163289
163285
163284
163345
163330
163317
163211
163142
163174
163223
163327
163263
163224
163271
163308
163322
163300
163220
163232
163239
163215
163260
163344
163301
163270
163272
163331
163303
163237
163245
163240
163233
163275
163300
163317
163206
163208
163210
163274
163376
163401
163364
163282
163320
163377
163389
163350
163262
163258
163268
163255
163272
163265
163351
163311
163229
163224
163206
163252
163309
163357
163352
163332
163318
163311
163311
163286
163261
163210
163174
163131
163159
163194
163328
163420
163414
163391
163312
163258
163281
163210
163180
163160
163206
163290
163304
163250
163237
163240
163183
163243
163286
163290
163310
163301
163245
163239
163167
163169
163138
163198
163208
163200
163282
163257
163280
163234
163140
163185
163206
163244
163219
163226
163271
163281
163232
163190
163099
163148
163135
163201
163243
163273
163342
163328
163236
163171
163147
163119
163165
163226
163198
163174
163199
163279
163299
163310
163194
163249
163225
163183
163160
163114
163185
163272
163320
163284
163196
163194
163172
163163
163153
163131
163141
163184
163162
163152
163067
163095
163190
163231
163256
163221
163229
163198
163146
163120
163064
163154
163306
163308
163288
163216
163278
163243
163189
163144
163070
163108
163199
163218
163245
163154
163157
163202
163269
163325
163244
163213
163191
163196
163235
163197
163243
163248
163235
163213
163148
163176
163139
163158
163161
163092
163099
163170
163165
163146
163014
163058
163056
163043
163078
163050
163115
163218
163196
163128
163035
163070
162988
162916
162909
162919
162972
163107
163106
163077
163078
163003
162942
162959
162939
162941
163141
163165
163118
163121
163047
163010
163013
163045
163099
163182
163262
163258
163265
163274
163206
163105
163087
163172
163095
163000
163003
162930
162874
162775
162683
162646
162673
162635
162583
162521
162604
162775
162789
162803
162789
162826
162906
162925
163036
163004
162983
162966
163004
162983
162889
162922
162897
162932
162956
162951
162953
162997
162987
162983
162834
162940
162939
162920
162878
162904
162841
162850
162890
162917
162861
162832
162795
162859
162781
162728
162825
162937
162987
163019
162898
162832
162859
162826
162793
162781
162833
162848
162878
162833
162846
162899
162921
162804
162773
162787
162835
162911
162973
162942
162810
162846
162858
162795
162812
162808
162875
162866
162871
162789
162737
162793
162810
162827
162835
162825
162830
162872
162919
162872
162774
162860
162870
162828
162832
162794
162916
162997
162977
162966
162945
162922
162907
162919
162915
162840
162850
162861
162908
162894
162788
162767
162744
162736
162747
162766
162809
162921
162923
162882
162820
162805
162725
162685
162689
162716
162754
162692
162617
162642
162645
162663
162685
162625
162632
162691
162720
162704
162639
162633
162522
162606
162583
162537
162578
162557
162619
162600
162620
162616
162466
162517
162539
162582
162569
162535
162565
162616
162572
162512
162422
162449
162451
162540
162463
162436
162566
162633
162641
162554
162505
162518
162543
162596
162529
162434
162396
162381
162421
162402
162466
162671
162624
162590
162555
162499
162495
162486
162537
162580
162481
162429
162423
162399
162437
162463
162433
162442
162512
162521
162473
162427
162440
162390
162422
162329
162383
162415
162344
162341
162319
162344
162327
162215
162256
162310
162304
162349
162324
162306
162276
162292
162294
162289
162270
162252
162290
162301
162286
162267
162203
162224
162350
162295
162246
162213
162327
162331
162293
162267
162252
162251
162183
162174
162258
162209
162279
162319
162256
162206
162276
162320
162292
162288
162330
162284
162316
162298
162237
162340
162287
162283
162289
162283
162317
162289
162318
162354
162445
162391
162282
162392
162363
162289
162287
162290
162387
162408
162355
162317
162237
162231
162237
162258
162266
162187
162169
162227
162251
162240
162193
162225
162203
162139
162106
162069
162105
162132
162172
162129
162038
162156
162200
162124
162164
162112
162099
162076
162095
162084
161982
161974
162026
162045
162059
162077
162114
162088
162056
162126
162089
162064
162000
161963
161996
161991
161997
162069
162012
161962
161932
162004
162174
162139
162063
162015
162065
162077
162069
162061
161973
162023
162038
161975
161968
161970
162027
162003
162016
162000
161937
161974
161979
161960
162055
162112
162128
162119
162063
162009
162011
161996
162022
161957
162058
162008
161989
162037
162071
162072
162023
162055
162009
161982
162011
161951
162016
162059
162071
162103
162023
162057
162120
162106
162062
161953
161970
162066
162110
162111
162094
162129
162138
162147
162139
162085
162074
162128
162185
162157
162089
162058
162056
162081
162065
162053
162133
162130
162191
162153
162103
162121
162147
162086
162031
161987
162059
162122
162130
162139
162113
162155
162114
162136
162069
162049
162088
162130
162159
162179
162033
162103
162131
162059
162072
162014
162026
162104
162119
162126
162074
162126
162075
162043
162081
162068
162097
162090
162034
162007
162031
162131
162162
162141
162096
161983
161991
162020
162026
162058
162056
162112
162138
162153
162127
162053
162048
162072
162026
162083
162019
161982
162033
162098
162142
162155
162180
162162
162086
162113
162046
162045
162066
162075
162108
162064
162189
162175
162175
162164
162123
162132
162208
162171
162106
161981
161930
161996
162124
162103
162074
162140
162175
162099
162044
162025
162059
162038
162066
162134
162166
162187
162288
162176
162095
162032
162051
162054
162064
162057
162083
162109
162069
162050
162076
162044
162085
162083
162094
162077
161996
162018
162049
162081
162112
162058
162037
162099
162169
162175
162071
162148
162224
162271
162256
162230
162225
162269
162295
162272
162190
162143
162127
162083
161961
161775
161677
161690
161713
161760
161835
161718
161666
161653
161740
161771
161785
161911
161926
161936
161910
161926
162007
161987
162029
162000
162111
162101
162055
162131
162073
162036
162029
162012
161974
161955
161999
162017
162006
161978
161961
162018
162089
162048
162016
161911
161925
161940
162012
161965
161889
161936
162084
162051
161981
161952
161959
161980
162025
162055
162047
162078
162054
162037
161970
161922
161934
162020
162069
162020
162033
162039
162029
161991
161972
161935
162016
162050
162028
161977
161902
161872
161814
161819
161882
161946
161971
162010
161934
161920
161887
161928
161885
161856
161836
161834
161846
161877
162006
162087
162055
162048
161944
161940
161948
161955
162019
162073
162033
162009
162028
162080
162025
162015
162036
162051
162077
162069
162105
162103
162017
162021
162061
162118
162125
162047
161990
162053
162087
162063
161991
162081
162102
162079
162072
161994
162055
161979
161925
161952
161914
161944
162025
162158
162106
161965
161964
161947
161928
162015
161966
162021
162006
161893
161897
161921
161982
161921
161925
161950
161988
162091
162065
162019
161967
161929
161951
161968
161987
162006
161976
162053
162044
162063
162029
161942
162033
162075
162045
162126
162155
162167
162136
162059
162069
162090
162138
162164
162103
162069
162068
162182
162200
162126
162040
162023
162069
162056
162074
162108
162079
162128
162113
162084
162024
161975
162160
162217
162136
162158
162167
162178
162168
162151
162098
162054
162104
162116
162113
162074
162070
162116
162184
162144
162126
162060
162082
162111
162103
162090
162103
162118
162067
161963
161947
161986
162053
162117
162156
162178
162068
162097
162100
162103
162074
161991
162006
162061
162051
162179
162114
162091
162074
162039
162067
162108
162118
162125
162144
162120
162106
162176
162124
162024
162019
161975
161969
162041
162043
162240
162229
162239
162166
162126
162055
162013
162086
162139
162142
162160
162179
162243
162238
162130
162096
162014
162122
162153
162172
162174
162154
162191
162163
162127
162137
162099
162141
162079
162105
162108
162074
162055
162058
162095
162111
162113
162098
162059
162017
161975
161925
162006
162069
162136
162141
162063
162116
162119
162076
162050
162026
162027
162002
162088
162136
162053
162055
162040
162021
162024
161966
162041
162047
162046
162062
162003
162023
162055
162056
162095
162079
162033
162122
162069
162031
161961
161962
162032
162051
162029
162020
162061
162096
162039
161992
161953
162010
162046
162029
162053
162036
162102
162034
162083
162075
162010
161992
161964
161997
162118
162120
162120
162022
161992
162058
161948
162028
162025
161997
162000
162014
162026
162092
162094
162037
161992
162013
162024
162093
162059
162088
162136
162128
162049
162061
162017
162077
162081
162043
162071
162101
162083
162098
162127
162042
162026
162123
162191
162149
162162
162119
162103
162079
162088
162033
162050
162141
162141
162164
162142
162064
162051
162079
162110
162080
161972
161939
161979
162068
162096
162109
162194
162189
162162
162113
162073
162085
162060
162033
162016
162006
161988
162033
162093
162086
161966
162014
162073
162120
162073
162023
162086
162132
162078
162003
162015
162086
162047
162028
162041
161976
162123
162177
162073
162022
161900
161922
162045
162133
162197
162144
162125
162124
162088
162101
162013
162021
162034
162070
162091
162048
162061
162008
161955
162009
162146
162228
162173
162123
162103
162043
161985
161937
161913
161939
162007
162242
162184
162173
162113
162055
162065
162091
162043
162035
161972
161966
162004
162020
162007
162000
162026
161952
161968
161935
161886
161957
162042
162055
162082
162044
161952
161950
161918
161959
162001
161966
161936
161945
161934
161882
161910
161978
162031
162073
162057
162067
162036
162090
162090
162172
162358
162308
162276
162162
162059
162028
161978
161892
161852
161796
161738
161617
161532
161577
161537
161527
161563
161540
161547
161550
161631
161677
161676
161715
161714
161741
161744
161734
161760
161746
161788
161703
161705
161838
161862
161838
161746
161750
161777
161749
161878
161863
161812
161731
161704
161796
161763
161787
161762
161778
161867
161888
161801
161730
161682
161730
161800
161836
161863
161846
161901
161902
161824
161740
161676
161693
161672
161733
161876
161949
161947
161895
161832
161795
161785
161746
161775
161855
161888
161832
161839
161820
161833
161785
161731
161808
161794
161823
161808
161785
161797
161786
161789
161824
161785
161812
161828
161787
161755
161714
161736
161744
161781
161830
161796
161823
161769
161763
161786
161826
161915
161862
161880
161821
161850
161869
161879
161856
161810
161800
161907
161862
161834
161828
161762
161837
161932
162065
161981
161845
161841
161864
161893
161841
161764
161739
161699
161802
161815
161705
161840
161885
161831
161806
161772
161819
161772
161764
161758
161731
161742
161700
161665
161719
161723
161800
161636
161662
161691
161625
161605
161560
161602
161615
161562
161675
161684
161645
161637
161613
161753
161769
161733
161677
161620
161625
161640
161661
161644
161540
161629
161682
161682
161768
161700
161588
161579
161562
161681
161707
161718
161695
161681
161649
161622
161580
161573
161636
161676
161607
161680
161718
161615
161572
161574
161664
161652
161671
161586
161513
161563
161602
161644
161709
161636
161662
161631
161734
161769
161689
161678
161659
161575
161595
161596
161637
161685
161639
161563
161504
161544
161592
161674
161767
161691
161680
161639
161643
161653
161573
161551
161631
161673
161662
161541
161525
161550
161586
161674
161558
161561
161657
161658
161624
161551
161563
161591
161598
161602
161557
161622
161631
161531
161493
161417
161475
161582
161734
161873
161766
161697
161696
161730
161682
161602
161590
161633
161615
161610
161564
161613
161690
161742
161674
161580
161586
161566
161570
161598
161582
161608
161543
161547
161558
161494
161616
161649
161571
161680
161646
161581
161559
161559
161552
161470
161568
161594
161629
161573
161475
161533
161547
161562
161530
161517
161602
161596
161613
161656
161610
161584
161572
161518
161486
161539
161620
161504
161474
161456
161494
161511
161478
161522
161586
161541
161582
161597
161595
161578
161541
161555
161547
161502
161540
161553
161562
161528
161489
161508
161540
161602
161604
161514
161523
161586
161602
161608
161541
161536
161510
161489
161490
161529
161492
161456
161498
161508
161496
161487
161460
161431
161511
161605
161584
161513
161536
161502
161529
161592
161601
161549
161524
161509
161513
161495
161536
161478
161432
161508
161507
161559
161679
161706
161614
161537
161556
161502
161446
161481
161526
161572
161621
161656
161586
161524
161507
161513
161542
161563
161594
161650
161604
161610
161640
161563
161512
161483
161482
161516
161585
161731
161727
161663
161635
161583
161579
161609
161582
161539
161553
161592
161635
161723
161734
161656
161632
161648
161656
161675
161621
161591
161575
161590
161580
161572
161661
161612
161622
161598
161498
161649
161717
161665
161706
161657
161623
161567
161522
161513
161474
161526
161731
161689
161656
161619
161580
161518
161552
161593
161619
161732
161698
161704
161656
161613
161646
161616
161571
161528
161461
161443
161499
161586
161652
161627
161618
161591
161537
161538
161498
161538
161522
161578
161649
161587
161517
161532
161479
161515
161484
161484
161438
161441
161474
161441
161458
161363
161371
161460
161431
161509
161571
161511
161491
161379
161436
161424
161385
161389
161430
161497
161495
161469
161468
161438
161417
161379
161373
161403
161365
161428
161487
161515
161453
161397
161357
161367
161401
161379
161338
161385
161395
161438
161405
161291
161316
161338
161329
161480
161501
161423
161482
161419
161398
161326
161474
161598
161632
161639
161553
161666
161662
161658
161633
161536
161445
161369
161265
161193
161115
161085
160983
161010
161056
161012
161041
160997
160987
161028
161101
161289
161220
161186
161196
161206
161223
161184
161156
161173
161205
161245
161273
161260
161279
161276
161290
161320
161333
161343
161304
161283
161322
161311
161237
161192
161258
161233
161294
161272
161292
161357
161328
161312
161320
161279
161240
161247
161284
161287
161286
161270
161322
161368
161293
161202
161217
161220
161266
161262
161244
161260
161295
161353
161357
161275
161289
161394
161382
161355
161320
161286
161356
161342
161348
161383
161399
161460
161427
161350
161260
161304
161307
161296
161348
161357
161335
161317
161313
161332
161281
161296
161299
161311
161290
161323
161348
161423
161401
161396
161307
161326
161388
161422
161408
161362
161320
161275
161247
161282
161305
161340
161383
161420
161433
161375
161323
161332
161305
161272
161300
161295
161258
161226
161186
161180
161320
161384
161323
161273
161182
161201
161229
161226
161211
161211
161191
161153
161093
161070
161036
161066
161075
161160
161206
161223
161173
161172
161097
161079
161096
161123
161109
161099
161111
161073
161073
161089
161155
161141
161088
161142
161238
161179
161120
161088
161143
161093
161062
161122
161136
161146
161118
161136
161121
161085
161125
161100
161091
161010
161031
161116
161165
161101
161132
161081
161155
161122
161141
161110
161008
161005
161012
161057
161078
161087
161107
161100
161099
161154
161126
161083
161087
161141
161125
161042
161037
161004
161054
161062
161047
161111
161141
161105
161080
161025
161009
160924
160908
160915
160935
161056
161101
161168
161224
161058
160988
160993
160971
160996
160876
160877
160980
161079
161114
161127
161073
161018
160986
160994
160967
161004
160959
160994
160979
161008
160959
160972
160981
161013
161032
160996
161046
161097
161088
160994
160984
160993
160999
161044
161024
161024
161031
161024
161009
160975
160931
160982
161035
161068
160951
160978
160953
160984
161026
160923
160972
160984
160995
160972
160978
160979
160980
161002
161091
161008
160960
160949
160942
160893
160867
160862
160896
160885
160907
160893
160906
160922
160880
160912
160914
161016
160980
160912
160889
160833
160823
160750
160765
160829
160848
160918
160920
160937
160931
160889
160905
160947
160941
160885
160829
160854
160889
160883
160941
160903
160825
160796
160756
160875
160891
161018
161002
160937
160841
160800
160870
160890
160901
160929
160908
160945
160930
160888
160920
160871
160860
160878
160871
160873
160837
160859
160834
160975
160964
160968
160936
160887
160866
160824
160791
160869
160804
160876
160885
160892
160941
160912
160862
160913
160859
160862
160886
160862
160871
160896
161018
161002
160922
160885
160845
160817
160855
160953
160877
160815
160870
160917
160902
160920
160882
160934
161016
160962
160905
160891
161041
161061
161107
160979
160837
160899
160942
160964
160910
160885
160875
160964
161047
161090
161066
161071
161025
161006
160925
160871
160892
160926
160902
160887
160913
160977
160960
161024
161011
160987
160985
160958
160968
161000
160948
160963
160968
160998
160927
160834
160835
160906
160982
161029
161052
161069
161056
160975
160936
160949
161023
160993
161043
161045
160933
160912
160916
160919
160934
160940
160991
161036
161001
160935
160918
160932
160932
160891
160861
160902
160848
160820
160894
160986
160979
160979
160961
160990
160960
160861
160837
160972
160950
160893
160829
160945
160993
160990
160957
160863
160822
160873
160868
160832
160788
160867
160872
160943
160901
160937
160988
160922
160920
160891
160981
161067
161030
161121
161146
161065
161160
161146
161038
160957
160815
160832
160830
160771
160643
160473
160489
160470
160419
160491
160458
160472
160566
160662
160665
160640
160725
160754
160713
160679
160633
160680
160726
160839
160881
160893
160966
160923
160850
160807
160711
160747
160904
160893
160950
160946
160885
160836
160828
160823
160846
160841
160825
160921
160961
160922
160837
160860
160940
160954
160926
160907
160858
160854
160857
160771
160845
160957
161033
160982
160921
160954
161008
161018
160936
160862
160882
160931
160968
160883
160810
160857
160900
160924
160954
160916
160966
161020
160966
160923
160897
160936
160964
160966
160970
161002
160956
160930
160869
160857
160825
160897
161018
160973
160963
160971
161032
160973
160896
160854
160847
161003
161101
161105
161075
160996
160938
160936
161002
161031
161034
161095
161084
161037
161065
161007
161068
161035
161034
161052
160990
161088
161096
161223
161207
161088
161105
161095
161060
161029
160984
161016
161024
161021
161024
161007
160978
160971
161030
160967
160933
160945
160950
160942
160961
160905
160854
160798
160747
160729
160730
160832
160932
160948
160949
160903
160868
160742
160688
160774
160834
160944
160972
160921
160847
160806
160869
160872
160868
160843
160807
160857
160815
160757
160764
160789
160850
160812
160787
160780
160845
160867
160889
160922
160887
160783
160768
160808
160860
160851
160759
160780
160734
160702
160663
160619
160642
160720
160871
160790
160685
160714
160784
160814
160823
160835
160791
160791
160753
160666
160610
160645
160676
160692
160749
160728
160735
160763
160709
160676
160601
160592
160606
160598
160624
160694
160660
160584
160537
160549
160503
160643
160694
160665
160636
160637
160735
160698
160654
160578
160551
160556
160602
160609
160581
160555
160547
160514
160546
160537
160489
160538
160528
160610
160604
160518
160495
160413
160371
160471
160500
160552
160491
160537
160583
160538
160564
160597
160553
160618
160590
160520
160513
160501
160532
160541
160643
160590
160503
160503
160477
160467
160546
160518
160468
160411
160448
160472
160514
160442
160436
160456
160446
160483
160457
160417
160422
160412
160333
160348
160359
160443
160438
160435
160477
160463
160483
160439
160357
160350
160332
160440
160464
160393
160315
160301
160283
160306
160415
160405
160280
160247
160238
160260
160309
160323
160369
160328
160341
160291
160278
160281
160218
160282
160375
160343
160301
160332
160329
160368
160364
160389
160363
160304
160205
160197
160322
160461
160426
160412
160318
160325
160335
160335
160349
160369
160420
160385
160334
160301
160250
160254
160241
160299
160365
160315
160352
160287
160260
160275
160238
160232
160286
160372
160429
160335
160358
160272
160183
160154
160122
160271
160453
160509
160406
160312
160309
160310
160337
160293
160244
160278
160299
160342
160363
160318
160345
160331
160332
160281
160210
160186
160227
160222
160267
160283
160250
160224
160275
160296
160287
160259
160278
160268
160180
160167
160210
160220
160288
160273
160249
160265
160284
160273
160255
160214
160223
160217
160205
160151
160116
160168
160232
160313
160309
160225
160289
160285
160265
160196
160119
160086
160118
160215
160223
160210
160242
160314
160274
160269
160223
160168
160157
160147
160139
160156
160220
160250
160231
160186
160054
160134
160214
160153
160141
160144
160204
160159
160095
160115
160053
160066
160084
160066
160054
160030
160098
160031
159995
160089
160061
160029
159996
159989
160061
160037
160086
160156
160108
160080
160060
160065
160076
160095
160041
160021
160006
159881
159874
159974
160039
159985
160075
160158
160110
160037
160048
160011
159970
159990
159884
159842
159837
159894
159992
160032
160060
160056
160034
159997
159932
159953
159953
159939
159937
159891
159962
160063
160009
159971
159924
159983
159949
159896
159897
159867
159950
159861
159874
160000
160031
160048
160030
160030
160037
160040
160062
160058
159982
160039
160068
160070
160120
160198
160165
160196
160272
160193
160111
160052
159963
159902
159795
159663
159637
159630
159721
159683
159605
159576
159489
159515
159542
159657
159696
159737
159860
159817
159819
159880
159819
159794
159833
159838
159799
159815
159888
159866
159852
159830
159798
159795
159827
159871
159853
159875
159923
159925
159841
159823
159814
159802
159858
159879
159821
159737
159750
159762
159807
159935
159925
159945
159865
159885
159868
159826
159821
159841
159781
159772
159709
159797
159879
159962
159893
159836
159917
159909
159935
159901
159826
159841
159789
159789
159780
159781
159803
159794
159798
159760
159750
159781
159832
159856
159798
159701
159770
159821
159821
159847
159684
159704
159841
159860
159850
159825
159836
159862
159843
159871
159828
159826
159869
159817
159837
159895
159933
159944
159918
159902
159811
159858
159856
159889
159924
159883
159859
159893
159860
159809
159801
159829
159871
159924
159908
159851
159873
159842
159830
159893
159830
159810
159818
159823
159836
159880
159851
159784
159720
159700
159684
159740
159731
159736
159676
159591
159748
159828
159699
159764
159661
159707
159687
159744
159745
159706
159703
159659
159647
159619
159578
159628
159615
159629
159722
159660
159591
159619
159700
159740
159670
159706
159695
159624
159584
159619
159671
159681
159723
159685
159583
159607
159579
159607
159671
159686
159693
159711
159738
159679
159677
159657
159611
159663
159646
159693
159655
159685
159672
159685
159697
159710
159695
159626
159605
159610
159620
159666
159674
159682
159603
159627
159650
159618
159574
159642
159633
159593
159618
159607
159543
159518
159519
159534
159609
159601
159669
159609
159641
159542
159464
159445
159479
159505
159574
159635
159732
159693
159618
159567
159486
159472
159465
159512
159499
159446
159533
159517
159515
159526
159496
159534
159457
159424
159453
159452
159485
159444
159360
159352
159391
159467
159531
159631
159572
159431
159449
159428
159457
159471
159431
159485
159460
159438
159407
159386
159468
159492
159479
159392
159383
159402
159434
159462
159541
159518
159507
159470
159393
159360
159309
159287
159412
159446
159419
159373
159415
159403
159305
159300
159345
159403
159368
159374
159344
159288
159358
159397
159369
159397
159313
159288
159264
159319
159332
159332
159367
159313
159273
159252
159232
159277
159338
159340
159284
159206
159222
159333
159375
159385
159322
159302
159336
159352
159339
159296
159345
159357
159304
159267
159244
159279
159327
159285
159329
159377
159444
159359
159306
159275
159292
159310
159288
159284
159306
159296
159337
159290
159301
159275
159217
159288
159362
159319
159278
159267
159355
159362
159358
159276
159297
159280
159290
159286
159307
159328
159347
159258
159210
159175
159148
159226
159214
159189
159240
159177
159197
159212
159283
159302
159247
159214
159155
159239
159233
159187
159142
159222
159278
159261
159238
159244
159221
159219
159251
159219
159211
159212
159172
159222
159194
159214
159207
159150
159269
159209
159233
159176
159164
159185
159153
159210
159274
159345
159337
159231
159187
159245
159282
159370
159304
159279
159254
159237
159249
159255
159309
159256
159222
159199
159165
159221
159201
159244
159263
159199
159237
159254
159244
159285
159252
159183
159163
159157
159204
159216
159164
159229
159264
159221
159155
159102
159149
159237
159271
159172
159191
159208
159220
159222
159194
159161
159140
159124
159139
159191
159153
159122
159130
159117
159061
159094
159086
159059
159065
159042
159067
159062
159105
159185
159225
159205
159106
159116
159135
159004
159052
159144
159209
159251
159168
159166
159155
159085
159106
159090
159151
159274
159257
159187
159193
159203
159190
159183
159203
159230
159238
159290
159341
159315
159291
159310
159351
159370
159367
159454
159516
159518
159509
159411
159336
159288
159154
159027
158945
158855
158853
158880
158895
158972
158924
158967
159032
159066
159060
159054
159088
159101
159168
159141
159080
159091
159115
159088
159221
159291
159253
159294
159306
159287
159240
159244
159243
159246
159220
159168
159258
159264
159293
159294
159265
159253
159257
159221
159239
159177
159145
159135
159133
159227
159324
159386
159329
159301
159279
159276
159357
159361
159347
159339
159230
159171
159195
159240
159272
159328
159410
159401
159382
159318
159304
159347
159352
159274
159238
159279
159363
159381
159410
159402
159352
159319
159282
159290
159345
159353
159351
159348
159378
159370
159231
159283
159394
159425
159397
159321
159317
159327
159335
159417
159364
159382
159410
159348
159354
159322
159320
159352
159431
159490
159432
159528
159526
159484
159470
159438
159482
159497
159478
159475
159441
159455
159440
159390
159409
159387
159434
159445
159410
159420
159369
159435
159427
159413
159386
159381
159361
159370
159435
159477
159395
159358
159342
159359
159377
159294
159382
159339
159302
159271
159288
159301
159317
159381
159333
159246
159310
159288
159343
159322
159244
159252
159178
159178
159191
159170
159229
159327
159403
159351
159217
159247
159298
159301
159277
159260
159271
159278
159246
159255
159182
159225
159183
159146
159182
159190
159262
159279
159271
159285
159226
159210
159162
159214
159171
159136
159193
159300
159391
159354
159216
159261
159268
159301
159238
159205
159214
159274
159296
159295
159265
159307
159270
159260
159241
159184
159183
159263
159358
159348
159243
159218
159156
159113
159089
159144
159288
159323
159359
159317
159237
159217
159224
159254
159260
159183
159173
159143
159115
159151
159184
159278
159292
159286
159275
159229
159300
159280
159255
159215
159156
159179
159177
159190
159148
159157
159204
159238
159279
159297
159226
159311
159313
159242
159210
159183
159181
159195
159238
159231
159199
159207
159235
159255
159204
159182
159228
159262
159361
159421
159361
159275
159240
159245
159200
159121
159261
159240
159197
159181
159166
159201
159195
159191
159236
159222
159258
159240
159240
159165
159126
159171
159266
159261
159207
159156
159148
159165
159187
159183
159182
159172
159248
159298
159237
159217
159276
159300
159310
159270
159256
159283
159248
159192
159175
159154
159175
159255
159365
159393
159307
159262
159258
159219
159172
159200
159308
159345
159296
159283
159242
159289
159408
159362
159369
159321
159315
159275
159277
159298
159264
159162
159116
159113
159229
159363
159477
159449
159426
159340
159294
159297
159287
159282
159343
159328
159371
159356
159316
159304
159202
159283
159347
159281
159268
159286
159298
159270
159319
159333
159271
159265
159221
159239
159342
159473
159397
159385
159426
159358
159300
159323
159325
159354
159297
159261
159272
159286
159349
159347
159335
159316
159352
159387
159433
159387
159367
159343
159333
159351
159365
159352
159305
159322
159348
159353
159323
159369
159411
159379
159502
159440
159368
159364
159361
159323
159357
159406
159512
159507
159414
159404
159330
159356
159428
159391
159374
159405
159428
159431
159374
159334
159322
159328
159384
159342
159436
159468
159500
159472
159468
159461
159438
159444
159363
159288
159366
159405
159451
159442
159426
159381
159443
159512
159557
159459
159513
159576
159587
159570
159522
159445
159370
159347
159432
159380
159620
159632
159623
159581
159562
159537
159524
159494
159547
159556
159556
159556
159587
159547
159493
159431
159462
159514
159620
159558
159599
159617
159601
159540
159484
159495
159543
159571
159493
159393
159444
159576
159605
159629
159570
159544
159622
159571
159539
159495
159575
159591
159591
159585
159533
159507
159482
159417
159431
159501
159552
159580
159604
159586
159525
159540
159576
159513
159464
159499
159667
159716
159706
159622
159592
159693
159735
159776
159840
159835
159916
159964
159926
159830
159728
159653
159628
159643
159572
159486
159493
159359
159344
159362
159248
159238
159166
159207
159294
159266
159320
159365
159428
159485
159515
159561
159566
159502
159583
159639
159611
159622
159629
159597
159587
159612
159627
159667
159616
159609
159683
159654
159709
159689
159663
159687
159694
159648
159620
159583
159643
159697
159688
159626
159638
159691
159686
159717
159718
159674
159683
159662
159668
159666
159657
159702
159690
159729
159751
159706
159696
159748
159756
159796
159802
159778
159718
159679
159727
159719
159812
159826
159738
159743
159797
159864
159793
159779
159714
159756
159809
159870
159892
159825
159741
159761
159761
159736
159720
159731
159752
159760
159712
159712
159719
159790
159906
159974
159933
159889
159884
159875
159893
159924
159873
159910
159856
159806
159779
159772
159848
159846
159863
159861
159855
159909
159951
159907
159869
159810
159818
159865
159885
159865
159848
159838
159837
159799
159737
159690
159747
159773
159743
159795
159725
159648
159624
159735
159856
159866
159847
159809
159814
159835
159815
159855
159862
159795
159762
159745
159773
159772
159753
159780
159842
159836
159850
159826
159786
159750
159731
159751
159705
159736
159749
159771
159766
159778
159695
159674
159741
159787
159809
159855
159764
159760
159732
159641
159586
159513
159533
159603
159641
159612
159641
159702
159663
159616
159633
159608
159631
159635
159568
159599
159588
159537
159601
159583
159550
159564
159582
159591
159584
159580
159504
159509
159465
159467
159459
159455
159454
159464
159524
159512
159471
159582
159580
159513
159444
159397
159497
159457
159447
159476
159448
159457
159406
159312
159322
159372
159421
159461
159392
159401
159423
159433
159405
159403
159372
159336
159311
159225
159248
159290
159277
159444
159468
159485
159385
159360
159373
159379
159429
159364
159362
159367
159292
159353
159380
159332
159388
159368
159329
159389
159354
159282
159349
159318
159327
159293
159213
159270
159262
159294
159387
159476
159387
159324
159257
159273
159348
159345
159313
159350
159306
159352
159341
159339
159339
159238
159313
159321
159358
159321
159228
159230
159260
159257
159183
159152
159199
159223
159270
159237
159194
159320
159354
159254
159193
159210
159213
159148
159155
159204
159198
159252
159203
159123
159128
159161
159173
159160
159087
159100
159095
159143
159111
159155
159142
159050
159028
159073
159113
159170
159128
159195
159181
159242
159284
159200
159160
159152
159151
159189
159132
159142
159072
159019
159052
159159
159196
159191
159203
159153
159145
159144
159128
159118
159101
159015
159020
158984
159053
159149
159200
159231
159226
159148
159173
159123
159123
159089
159110
159129
159162
159156
159115
159041
159043
159068
159133
159137
159109
159157
159161
159185
159197
159191
159150
159115
159103
159131
159139
159104
159102
159160
159146
159222
159201
159192
159281
159287
159221
159261
159244
159205
159145
159197
159223
159156
159111
159144
159179
159190
159137
159196
159202
159229
159293
159207
159171
159135
159116
159132
159167
159250
159265
159250
159195
159145
159141
159112
159184
159234
159232
159262
159279
159277
159239
159167
159198
159262
159184
159159
159093
159160
159195
159207
159266
159258
159234
159216
159226
159269
159248
159234
159169
159187
159204
159119
159145
159177
159223
159233
159186
159191
159206
159183
159178
159140
159154
159214
159210
159229
159122
159113
159119
159075
159107
159139
159167
159146
159123
159107
159099
159121
159131
159162
159077
158960
159037
159041
159116
159164
159139
159127
159134
159103
159068
159017
158945
158933
159056
159084
159158
159171
159079
159072
159072
159066
159046
159009
159015
159070
159073
159141
159201
159259
159220
159200
159228
159238
159198
159158
159133
159107
159084
158980
158905
158810
158827
158705
158601
158605
158594
158615
158590
158556
158500
158527
158643
158649
158677
158772
158722
158738
158797
158838
158857
158781
158783
158799
158797
158777
158785
158811
158814
158833
158753
158719
158763
158763
158770
158806
158810
158866
158828
158739
158706
158734
158734
158732
158759
158733
158631
158690
158792
158765
158860
158805
158740
158742
158720
158705
158716
158725
158721
158682
158647
158528
158551
158585
158693
158756
158768
158757
158742
158730
158703
158669
158709
158699
158672
158612
158543
158606
158692
158688
158650
158628
158624
158699
158701
158701
158678
158703
158716
158701
158653
158584
158595
158569
158620
158654
158594
158609
158681
158613
158638
158601
158633
158717
158760
158692
158656
158703
158715
158693
158680
158611
158587
158571
158593
158577
158598
158719
158790
158836
158728
158688
158693
158676
158642
158659
158627
158665
158675
158648
158588
158508
158526
158623
158593
158638
158737
158818
158764
158650
158631
158581
158595
158531
158502
158565
158532
158603
158634
158644
158655
158524
158544
158575
158521
158600
158570
158542
158523
158518
158509
158414
158440
158443
158454
158468
158470
158488
158434
158412
158437
158407
158486
158499
158451
158449
158433
158555
158556
158544
158515
158414
158411
158396
158383
158386
158409
158425
158420
158337
158382
158410
158383
158441
158442
158370
158339
158320
158349
158362
158341
158320
158334
158359
158389
158433
158371
158348
158339
158367
158400
158396
158381
158303
158270
158307
158318
158379
158344
158268
158338
158311
158356
158365
158358
158255
158251
158393
158383
158429
158358
158277
158330
158332
158340
158321
158253
158325
158371
158334
158350
158302
158309
158413
158326
158290
158332
158283
158328
158364
158347
158387
158383
158317
158354
158285
158249
158281
158332
158341
158341
158247
158340
158407
158434
158399
158331
158337
158312
158374
158385
158352
158340
158354
158390
158409
158414
158406
158329
158174
158168
158250
158372
158382
158319
158286
158271
158370
158397
158333
158306
158207
158204
158231
158278
158343
158328
158318
158392
158375
158305
158263
158256
158187
158226
158183
158144
158255
158320
158283
158209
158131
158101
158132
158253
158277
158197
158242
158271
158263
158211
158180
158165
158156
158090
158032
158009
158055
158215
158363
158340
158193
158193
158212
158169
158173
158157
158229
158221
158212
158142
158091
158044
158053
158139
158257
158246
158276
158287
158252
158214
158161
158164
158173
158138
158118
158048
158086
158223
158338
158249
158169
158134
158126
158184
158181
158207
158237
158225
158208
158220
158200
158119
158147
158174
158148
158039
158101
158109
158157
158219
158195
158198
158211
158080
158013
158012
158079
158174
158177
158126
158072
158164
158148
158117
158088
158000
158054
158143
158068
158050
158040
158142
158153
158093
158123
158062
158091
158109
158101
158026
157972
158053
158020
158035
158007
158089
158132
158156
158128
158047
158038
158065
158089
158117
158099
158022
158021
158061
158022
158005
157917
157962
157954
158040
158039
158015
158100
158189
158180
158077
158000
158018
158070
158060
158129
158074
158070
158072
158006
158006
157971
158100
158073
158046
158077
158017
158015
158002
158071
158110
158018
157946
158018
157977
157909
157888
158024
158169
158210
158194
158155
158092
158034
158069
158067
158069
158092
158101
158069
157991
157961
158019
158026
158071
158050
158027
158071
158053
158098
158088
158045
158035
157991
158002
157970
157948
158030
158087
158101
158144
158130
158047
157903
157965
157953
157945
158057
158172
158073
158012
157918
157960
157991
158007
157926
157920
157882
157838
157888
158000
158074
158110
158024
158026
157964
157997
158020
157978
157997
157981
157960
157988
157915
157888
157915
157901
157961
158020
158019
158077
158043
158042
157987
157950
157953
157992
158053
158065
158063
158065
158071
158135
158203
158267
158230
158221
158231
158231
158182
158249
158222
158157
158052
157952
157922
157846
157806
157748
157738
157656
157534
157611
157600
157629
157695
157667
157828
157884
157870
157901
157862
157840
157921
158029
158012
157942
157953
157982
158021
158067
158031
158066
158103
158052
158070
158054
158070
157986
157981
157910
157870
157997
158049
158116
158169
158074
158030
157990
158021
158031
157995
158035
157997
157957
157903
157931
157993
158085
158051
158033
157973
157985
158105
158146
158162
158090
158049
158054
158009
158033
158021
158116
158176
158165
158146
158071
158095
158100
158042
158051
157992
158035
158142
158199
158122
158058
158070
158149
158130
158160
158102
158135
158133
158164
158104
157965
157999
158024
158103
158161
158115
158049
158018
158037
158080
158115
158189
158235
158232
158271
158175
158160
158132
158103
158065
158094
158157
158137
158183
158172
158123
158178
158227
158230
158155
158109
158146
158199
158242
158211
158177
158168
158170
158128
158145
158106
158178
158137
158150
158216
158160
158171
158138
158115
158142
158058
158190
158241
158210
158244
158176
158264
158286
158180
158154
158181
158266
158303
158255
158278
158199
158195
158200
158246
158243
158226
158254
158252
158229
158197
158145
158289
158431
158371
158394
158365
158407
158394
158396
158402
158282
158338
158376
158365
158420
158340
158318
158351
158387
158369
158379
158386
158428
158386
158377
158405
158508
158500
158505
158469
158416
158389
158364
158407
158476
158528
158587
158662
158680
158647
158574
158572
158532
158532
158565
158576
158586
158626
158716
158706
158677
158658
158660
158665
158680
158689
158718
158792
158750
158797
158804
158791
158787
158715
158768
158763
158824
158862
158850
158821
158796
158804
158782
158786
158787
158763
158824
158875
158904
158935
158879
158897
158906
158891
158895
158891
158897
158894
158937
158955
158961
159004
159038
159034
159024
158986
158994
159027
159075
159116
159133
159177
159170
159146
159158
159146
159172
159234
159273
159229
159154
159207
159283
159267
159302
159316
159325
159310
159328
159326
159323
159309
159252
159265
159332
159359
159453
159509
159476
159450
159353
159429
159516
159575
159526
159509
159489
159508
159554
159673
159669
159593
159569
159538
159535
159531
159617
159714
159778
159723
159735
159734
159760
159714
159710
159690
159789
159800
159788
159822
159860
159900
159943
159866
159899
159913
159948
159998
160007
159999
160011
160036
160069
160082
160059
160058
160049
160112
160172
160181
160175
160182
160239
160267
160296
160227
160275
160308
160364
160351
160304
160348
160376
160341
160452
160411
160470
160561
160534
160498
160501
160534
160547
160550
160560
160525
160558
160588
160619
160621
160606
160671
160663
160672
160678
160672
160722
160740
160739
160751
160706
160700
160716
160755
160702
160662
160706
160770
160855
160935
160872
160898
160926
161026
160986
160923
160966
161004
161004
160989
160956
160983
161041
161054
161109
161092
161103
161098
161103
161064
161057
161098
161088
161102
161085
161096
161228
161135
161134
161195
161141
161149
161096
161151
161181
161279
161291
161277
161305
161341
161292
161246
161236
161237
161226
161249
161420
161398
161421
161362
161238
161281
161376
161486
161466
161418
161435
161365
161338
161348
161433
161540
161461
161419
161468
161419
161439
161448
161477
161461
161514
161584
161506
161506
161485
161509
161521
161578
161520
161467
161437
161487
161579
161591
161574
161541
161563
161662
161636
161603
161586
161634
161578
161602
161652
161616
161607
161581
161618
161653
161644
161621
161680
161649
161582
161503
161628
161689
161755
161753
161670
161667
161699
161686
161607
161565
161577
161530
161552
161628
161662
161683
161589
161563
161604
161630
161681
161643
161639
161622
161577
161592
161650
161663
161701
161688
161685
161698
161694
161736
161665
161676
161693
161631
161629
161563
161597
161536
161479
161492
161678
161789
161735
161800
161825
161760
161790
161834
161837
161873
161873
161894
161831
161781
161737
161675
161745
161824
161743
161739
161647
161550
161494
161385
161316
161294
161287
161278
161295
161327
161344
161445
161442
161406
161436
161476
161513
161572
161618
161602
161570
161678
161700
161656
161649
161581
161570
161623
161603
161608
161628
161615
161618
161611
161602
161492
161526
161629
161712
161707
161680
161620
161570
161586
161607
161603
161621
161634
161621
161612
161621
161624
161596
161574
161592
161498
161591
161638
161648
161670
161756
161737
161719
161715
161638
161558
161573
161558
161594
161584
161594
161629
161621
161657
161632
161625
161680
161792
161733
161702
161646
161640
161696
161653
161620
161567
161562
161532
161598
161628
161603
161639
161740
161728
161697
161703
161659
161635
161607
161640
161669
161655
161611
161699
161634
161593
161607
161658
161608
161573
161544
161574
161644
161696
161721
161626
161633
161655
161699
161702
161631
161572
161516
161579
161505
161518
161623
161659
161562
161496
161517
161529
161528
161500
161492
161488
161528
161531
161521
161514
161444
161443
161421
161380
161382
161325
161314
161327
161397
161413
161368
161446
161442
161338
161309
161258
161323
161304
161253
161212
161251
161303
161348
161379
161320
161282
161333
161316
161255
161198
161196
161224
161262
161274
161227
161227
161212
161266
161257
161232
161232
161237
161273
161226
161245
161224
161199
161201
161236
161233
161214
161190
161206
161284
161254
161153
161160
161182
161121
161199
161204
161230
161200
161182
161116
161062
161152
161215
161192
161190
161182
161163
161115
161075
161092
161080
161116
161127
161133
161113
161062
161122
161083
161120
161089
161032
161010
160991
160962
161013
161173
161188
161123
161120
161080
161041
161038
161025
161028
161014
160956
160938
161009
160958
160996
160988
161039
161068
161056
161088
160992
160931
160935
160910
160965
160966
160978
161082
161075
161071
161073
161063
161016
160948
160955
161031
161045
161008
160967
160980
160934
160928
160990
161004
160960
160845
160852
160865
160850
160842
160916
160976
160986
160994
160975
160942
160985
160954
160930
160906
160825
160853
160888
160854
160853
160837
160824
160790
160831
160815
160838
160885
160934
160869
160783
160763
160776
160757
160727
160765
160766
160793
160764
160799
160781
160743
160727
160727
160736
160689
160775
160798
160732
160738
160729
160685
160669
160665
160656
160718
160738
160708
160716
160739
160688
160646
160659
160697
160744
160726
160678
160684
160638
160662
160719
160760
160729
160750
160767
160729
160687
160689
160664
160684
160723
160678
160655
160671
160722
160768
160717
160688
160681
160659
160635
160564
160503
160554
160622
160666
160681
160683
160661
160614
160593
160572
160750
160672
160644
160655
160627
160646
160658
160742
160687
160593
160643
160610
160615
160667
160636
160629
160600
160668
160667
160602
160662
160666
160572
160551
160559
160659
160690
160704
160649
160627
160611
160609
160624
160629
160656
160598
160523
160577
160644
160507
160460
160485
160534
160584
160578
160617
160586
160544
160548
160531
160533
160539
160589
160664
160581
160535
160474
160410
160375
160503
160588
160555
160505
160510
160526
160663
160657
160592
160547
160462
160507
160532
160524
160479
160389
160442
160500
160451
160438
160510
160571
160550
160516
160535
160470
160452
160455
160457
160514
160447
160434
160482
160521
160483
160432
160495
160485
160500
160495
160479
160520
160538
160530
160449
160403
160453
160477
160568
160558
160452
160395
160335
160379
160434
160457
160484
160496
160488
160539
160474
160457
160411
160386
160476
160505
160524
160458
160432
160446
160420
160430
160456
160500
160545
160562
160575
160577
160496
160443
160396
160388
160353
160321
160419
160457
160602
160581
160516
160481
160410
160393
160491
160491
160446
160390
160431
160521
160519
160420
160276
160310
160399
160428
160474
160460
160439
160426
160373
160358
160329
160337
160314
160315
160349
160352
160431
160496
160446
160386
160325
160375
160395
160333
160376
160367
160415
160436
160359
160343
160314
160317
160328
160374
160415
160398
160500
160581
160505
160544
160541
160601
160613
160616
160488
160421
160368
160405
160424
160420
160314
160166
160058
159975
159935
159914
159981
160053
160069
160040
160023
160062
160155
160140
160155
160149
160163
160213
160279
160307
160306
160331
160311
160322
160355
160316
160282
160288
160304
160222
160200
160202
160251
160247
160207
160219
160294
160263
160229
160283
160179
160165
160232
160260
160185
160080
160138
160219
160256
160247
160217
160206
160169
160183
160223
160191
160184
160174
160179
160170
160112
160122
160215
160238
160215
160221
160214
160221
160188
160121
160089
160049
160037
160113
160115
160124
160211
160226
160178
160176
160107
160127
160079
160096
160126
160127
160175
160123
160108
160081
160118
160086
160056
160089
160164
160202
160215
160221
160203
160152
160071
160122
160112
160040
160071
160079
160150
160221
160252
160298
160293
160326
160265
160230
160239
160208
160216
160193
160148
160184
160168
160256
160269
160231
160221
160216
160231
160217
160219
160232
160251
160238
160204
160187
160221
160108
160130
160077
160102
160192
160059
160091
160157
160182
160289
160221
160199
160161
160177
160226
160206
160157
160129
160083
160079
160174
160247
160215
160186
160137
160082
160122
160112
160115
160151
160165
160165
160125
160114
160068
160041
160132
160221
160235
160196
160206
160197
160229
160174
160149
160127
160114
160096
160094
160105
160095
160122
160143
160138
160112
160137
160134
160114
160140
160149
160120
160122
160091
160066
160102
160116
160175
160165
160101
160069
160056
160055
160057
160102
160149
160129
160107
160055
160123
160109
160102
160172
160185
160168
160169
160142
160103
160064
160075
160108
160038
160118
160167
160190
160198
160102
160135
160122
160147
160128
160089
160139
160165
160133
160095
160105
160117
160023
160072
160100
160090
160085
160082
160067
160035
160020
160152
160127
160151
160197
160131
160107
160104
160085
160113
160104
160157
160151
160167
160145
160069
160083
160167
160124
160079
160078
160073
160035
160114
160128
160092
160214
160228
160214
160182
160097
160124
160058
160161
160207
160146
160126
160138
160205
160118
160062
160083
159991
160005
160054
160010
160049
160122
160209
160169
160032
160050
160120
160143
160069
160034
160079
160096
160079
160059
160065
160033
160033
160053
160075
160140
160108
160155
160116
160085
160074
160077
160061
159998
159981
160011
160124
160178
160180
160081
159979
160004
160108
160136
160101
160129
160188
160170
160106
160134
160079
160083
160059
160053
160094
160079
160114
160139
160171
160078
160057
160042
160102
160107
160149
160183
160208
160149
160138
160082
160046
160094
160064
160126
160145
160160
160166
160174
160168
160087
159976
160026
160118
160166
160212
160074
160070
160103
160099
160111
160147
160178
160136
160263
160304
160224
160198
160192
160207
160185
160149
160153
160144
160188
160182
160110
160161
160169
160107
160162
160220
160242
160194
160194
160202
160160
160165
160236
160239
160250
160208
160281
160257
160200
160194
160152
160184
160207
160280
160297
160214
160232
160223
160197
160314
160253
160236
160259
160346
160376
160280
160263
160346
160363
160427
160375
160372
160387
160353
160327
160326
160408
160412
160348
160383
160359
160404
160449
160506
160463
160368
160371
160366
160363
160340
160400
160427
160440
160451
160422
160414
160414
160411
160465
160415
160391
160448
160526
160510
160484
160415
160421
160423
160431
160372
160368
160476
160528
160559
160530
160463
160427
160441
160435
160427
160427
160504
160462
160481
160475
160497
160555
160513
160506
160541
160510
160588
160599
160559
160485
160442
160519
160463
160447
160431
160406
160401
160494
160526
160498
160486
160514
160523
160430
160376
160353
160456
160521
160521
160435
160371
160386
160347
160336
160336
160369
160446
160374
160344
160424
160365
160420
160422
160430
160372
160346
160397
160378
160426
160438
160395
160362
160328
160288
160202
160189
160326
160440
160512
160537
160511
160506
160462
160434
160446
160476
160573
160617
160595
160597
160593
160541
160546
160503
160442
160363
160342
160312
160348
160232
160050
159955
159995
160072
160078
160033
160144
160106
160150
160160
160113
160215
160320
160305
160259
160227
160345
160466
160478
160532
160479
160485
160444
160434
160421
160366
160390
160463
160475
160441
160358
160376
160458
160506
160505
160499
160464
160467
160512
160431
160391
160362
160391
160429
160416
160449
160519
160528
160452
160430
160399
160382
160448
160497
160496
160550
160556
160548
160528
160530
160425
160508
160520
160457
160470
160406
160369
160465
160482
160561
160513
160438
160415
160397
160420
160433
160426
160516
160535
160454
160326
160411
160444
160445
160500
160522
160555
160515
160507
160523
160469
160470
160449
160445
160483
160474
160407
160440
160431
160466
160481
160472
160545
160556
160480
160423
160556
160599
160570
160508
160485
160518
160496
160419
160420
160443
160541
160572
160561
160561
160480
160434
160407
160399
160423
160522
160573
160532
160475
160443
160375
160415
160419
160425
160404
160322
160376
160465
160416
160510
160435
160380
160403
160407
160423
160337
160313
160346
160341
160293
160301
160357
160331
160338
160293
160306
160352
160335
160319
160294
160253
160304
160365
160317
160263
160253
160355
160309
160366
160399
160310
160310
160305
160278
160227
160217
160253
160349
160438
160431
160391
160442
160428
160374
160398
160326
160311
160375
160430
160384
160349
160275
160205
160269
160320
160489
160488
160464
160476
160423
160334
160368
160332
160314
160341
160322
160322
160347
160346
160427
160407
160423
160320
160314
160361
160289
160288
160301
160331
160386
160320
160268
160254
160245
160265
160272
160220
160227
160259
160248
160299
160324
160274
160185
160164
160157
160187
160218
160252
160262
160193
160216
160215
160180
160146
160172
160205
160192
160167
160252
160238
160253
160203
160232
160223
160123
160103
160161
160242
160279
160225
160230
160244
160228
160229
160244
160303
160288
160320
160236
160194
160203
160238
160212
160191
160201
160296
160348
160318
160245
160181
160206
160176
160234
160249
160200
160188
160195
160189
160225
160230
160204
160223
160249
160210
160238
160290
160302
160225
160167
160135
160154
160187
160153
160134
160126
160165
160147
160142
160210
160149
160063
160106
160121
160082
160154
160242
160295
160297
160327
160297
160262
160189
160129
160111
160093
160170
160201
160198
160226
160182
160209
160218
160177
160133
160045
160109
160189
160250
160233
160157
160195
160234
160243
160165
160075
160170
160245
160287
160290
160191
160151
160111
160023
160103
160137
160202
160201
160219
160163
160086
160201
160262
160214
160199
160099
160163
160233
160220
160180
160181
160154
160120
160178
160191
160173
160208
160190
160225
160230
160225
160223
160201
160177
160120
160065
160078
160118
160175
160145
160071
160232
160307
160274
160252
160224
160210
160171
160183
160140
160140
160174
160193
160231
160253
160266
160214
160208
160263
160253
160229
160259
160220
160223
160213
160137
160149
160190
160172
160126
160145
160219
160234
160234
160221
160152
160184
160187
160218
160236
160227
160174
160138
160159
160126
160110
160169
160174
160246
160268
160263
160259
160275
160253
160221
160160
160154
160207
160225
160190
160132
160122
160207
160277
160204
160134
160146
160188
160208
160252
160241
160188
160203
160187
160161
160148
160193
160214
160241
160211
160182
160181
160194
160223
160219
160196
160197
160231
160177
160227
160203
160187
160207
160174
160202
160228
160335
160343
160339
160285
160279
160225
160096
160094
160104
160089
160180
160141
160165
160174
160146
160151
160135
160137
160109
160072
160069
160090
160128
160252
160244
160246
160209
160156
160183
160165
160185
160154
160244
160226
160163
160173
160178
160152
160108
160079
160212
160273
160256
160196
160135
160098
160121
160209
160361
160339
160337
160349
160362
160429
160402
160371
160331
160328
160334
160420
160379
160304
160230
160255
160175
160099
159967
159896
159873
159853
159828
159832
159869
159897
159846
159897
159967
159950
159996
159995
160008
160074
160145
160116
160104
160104
160086
160059
160089
160138
160148
160149
160207
160269
160185
160145
160151
160110
160139
160118
160184
160172
160232
160247
160195
160227
160232
160201
160194
160185
160202
160221
160263
160290
160243
160131
160146
160188
160226
160242
160230
160222
160212
160278
160171
160152
160194
160120
160080
160050
160083
160184
160277
160328
160265
160180
160183
160144
160165
160125
160121
160125
160122
160178
160137
160094
160116
160076
160171
160200
160249
160250
160176
160193
160124
160194
160165
160107
160129
160125
160164
160162
160095
160146
160081
160079
160045
160103
160152
160284
160294
160220
160237
160215
160178
160177
160147
160075
160115
160153
160106
160139
160134
160200
160181
160178
160177
160263
160255
160175
160156
160164
160194
160135
160063
160093
160085
160069
160045
159974
160036
160043
160070
160180
160125
160074
160072
160129
160094
159970
159946
159968
159983
159982
159955
160000
160019
159920
159873
159905
159994
160034
160041
160004
159944
159984
159978
160052
160004
159977
160048
160035
160004
159993
159931
159958
159928
159869
159874
159866
159947
160026
159997
159953
159931
159995
160109
160070
160031
159975
160016
160024
159963
159928
159869
159987
160032
160039
160009
159970
159988
159983
160005
160010
160005
160013
159966
159897
159896
159867
159889
159946
159964
159960
159962
159964
159900
159881
159848
159823
159873
159848
159910
159922
159916
159897
159881
159945
159855
159811
159883
160034
160014
159947
159840
159839
159908
159832
159886
159835
159982
159982
159954
159887
159848
159897
159952
159949
159874
159756
159771
159854
159925
159966
159834
159813
159838
159810
159839
159863
159846
159810
159866
159860
159820
159838
159896
159788
159759
159739
159835
159924
159960
159960
159866
159862
159868
159886
159873
159852
159845
159868
159848
159786
159798
159806
159778
159715
159691
159656
159708
159768
159762
159927
159836
159781
159764
159710
159655
159674
159678
159651
159623
159687
159691
159675
159668
159655
159676
159722
159714
159695
159693
159703
159629
159626
159669
159695
159666
159611
159599
159517
159481
159542
159634
159718
159678
159624
159616
159543
159571
159638
159617
159652
159722
159637
159638
159624
159599
159555
159559
159579
159565
159572
159631
159696
159678
159652
159635
159588
159618
159567
159520
159579
159641
159751
159807
159736
159648
159586
159603
159610
159640
159642
159613
159617
159686
159646
159617
159510
159598
159722
159736
159731
159674
159680
159659
159670
159582
159542
159558
159597
159624
159670
159623
159605
159633
159652
159690
159675
159607
159543
159575
159564
159525
159567
159563
159598
159630
159616
159691
159613
159605
159625
159552
159643
159629
159650
159650
159569
159597
159666
159673
159708
159656
159686
159683
159636
159659
159588
159580
159635
159598
159583
159639
159702
159753
159726
159670
159635
159674
159695
159723
159713
159635
159648
159626
159567
159548
159636
159776
159815
159795
159735
159720
159732
159746
159701
159678
159594
159599
159558
159539
159575
159673
159641
159723
159748
159744
159670
159695
159688
159645
159669
159682
159746
159700
159637
159554
159555
159634
159687
159647
159647
159638
159691
159746
159715
159643
159572
159571
159581
159606
159650
159488
159488
159555
159572
159626
159686
159693
159604
159605
159622
159581
159649
159607
159522
159536
159430
159492
159556
159633
159652
159593
159522
159529
159499
159544
159606
159620
159564
159531
159518
159527
159549
159543
159590
159658
159634
159563
159533
159485
159532
159509
159566
159571
159549
159519
159446
159547
159556
159542
159479
159435
159468
159489
159464
159434
159377
159432
159456
159456
159477
159479
159517
159545
159503
159499
159389
159420
159464
159447
159419
159496
159549
159500
159399
159344
159299
159374
159413
159465
159508
159523
159592
159588
159534
159538
159544
159613
159624
159572
159664
159607
159681
159648
159620
159623
159544
159487
159441
159413
159386
159276
159199
159137
159101
159026
158936
159044
159044
159061
159084
159134
159226
159240
159258
159342
159318
159325
159352
159360
159370
159401
159479
159489
159469
159372
159251
159270
159346
159386
159422
159370
159407
159420
159367
159407
159416
159397
159408
159414
159393
159357
159366
159401
159382
159316
159339
159410
159418
159456
159382
159349
159385
159395
159457
159415
159346
159355
159337
159434
159505
159371
159446
159426
159388
159429
159398
159401
159388
159330
159340
159369
159329
159376
159485
159410
159369
159379
159407
159401
159370
159382
159437
159435
159348
159248
159280
159406
159487
159471
159429
159397
159405
159391
159405
159403
159356
159406
159430
159464
159489
159451
159436
159469
159425
159379
159390
159438
159471
159436
159398
159382
159472
159515
159472
159485
159434
159430
159415
159378
159449
159423
159382
159460
159423
159465
159498
159456
159452
159396
159418
159352
159351
159357
159347
159440
159465
159508
159553
159459
159384
159383
159422
159443
159379
159340
159352
159352
159383
159390
159323
159364
159368
159366
159415
159423
159337
159321
159350
159313
159375
159397
159407
159419
159361
159344
159311
159334
159345
159287
159287
159244
159269
159370
159351
159242
159221
159252
159316
159459
159538
159345
159390
159398
159352
159315
159251
159280
159341
159323
159316
159370
159450
159421
159378
159343
159276
159261
159273
159333
159357
159315
159343
159381
159337
159311
159187
159205
159228
159334
159435
159400
159373
159355
159379
159361
159261
159258
159295
159345
159296
159209
159235
159240
159282
159300
159292
159257
159253
159218
159220
159155
159190
159292
159239
159277
159274
159221
159199
159206
159156
159144
159226
159338
159361
159283
159207
159243
159282
159300
159299
159311
159297
159347
159258
159251
159220
159244
159295
159294
159290
159255
159266
159293
159243
159229
159145
159199
159167
159192
159166
159079
159122
159224
159195
159245
159191
159227
159234
159167
159186
159157
159121
159100
159145
159213
159161
159129
159141
159144
159195
159131
159142
159161
159163
159135
159095
159092
159030
159041
159001
158985
159097
159133
159163
159081
159062
159087
159099
159117
159109
159071
159094
159098
159107
159096
159041
159042
159089
159063
159044
159020
159021
159084
159028
159055
159077
159086
159081
159122
159059
158963
159032
159118
159161
159068
158997
159007
159039
159096
159106
159076
159107
159137
159101
159084
159027
158998
159041
159092
159109
159146
159133
159075
159085
159055
159039
159065
159008
158904
158984
159107
159141
159161
159079
159109
159094
159108
159096
159072
159093
159086
159103
159190
159162
159096
159112
159046
159027
159081
159140
159106
159021
159001
159006
158998
158994
159059
159056
159030
159057
159052
159135
159147
159128
159084
159002
159001
159015
159050
159067
159038
159116
159146
159150
159069
159030
159087
159117
159063
159046
159066
159133
159146
159129
159171
159107
159076
159033
159005
159032
158947
158969
159062
159167
159240
159187
159136
159111
159090
159024
158976
159018
159082
159174
159195
159149
159191
159243
159179
159118
159092
159065
159104
159172
159135
159137
159179
159171
159148
159105
159061
159140
159236
159210
159232
159185
159166
159159
159110
159146
159187
159277
159294
159236
159226
159134
159117
159148
159171
159166
159127
159208
159213
159221
159174
159092
159148
159118
159086
159114
159079
159131
159164
159223
159138
159077
159070
159036
159038
159123
159187
159240
159191
159153
159102
159115
159101
159175
159173
159161
159164
159129
159115
159088
159078
159028
159051
159084
159039
159063
159021
159072
159193
159255
159247
159221
159182
159151
159173
159211
159169
159226
159304
159416
159471
159393
159359
159330
159308
159248
159123
159068
159032
158914
158783
158737
158751
158719
158825
158763
158713
158715
158832
158965
158957
158849
158954
159015
159008
159026
159072
159149
159184
159235
159185
159089
159145
159130
159123
159154
159119
159130
159230
159278
159270
159140
159150
159126
159137
159130
159092
159098
159159
159186
159123
159142
159150
159166
159241
159189
159112
159132
159154
159142
159131
159124
159108
159062
159097
159242
159235
159190
159150
159200
159213
159142
159113
159090
159134
159174
159214
159244
159171
159171
159187
159155
159166
159208
159203
159192
159173
159171
159184
159180
159212
159225
159213
159128
159132
159155
159122
159195
159246
159220
159235
159183
159171
159189
159196
159181
159143
159209
159189
159214
159282
159270
159297
159260
159226
159257
159261
159203
159236
159316
159314
159330
159341
159286
159215
159238
159266
159321
159298
159258
159249
159193
159251
159275
159394
159427
159365
159324
159226
159227
159245
159224
159197
159214
159218
159168
159181
159231
159282
159337
159288
159178
159253
159178
159161
159225
159195
159221
159184
159154
159196
159167
159165
159084
159077
159128
159202
159224
159189
159133
159110
159123
159087
159073
159139
159130
159118
159128
159050
159063
159098
159097
159160
159145
159198
159210
159170
159110
159109
159107
159168
159164
159208
159154
159176
159139
159116
159145
159202
159187
159117
159077
159104
159089
159117
159101
159122
159154
159158
159129
159082
159130
159164
159190
159156
159128
159139
159153
159157
159175
159184
159184
159244
159217
159177
159209
159191
159161
159153
159164
159175
159239
159332
159306
159231
159155
159116
159163
159236
159233
159194
159162
159247
159290
159249
159188
159109
159140
159165
159146
159123
159191
159321
159238
159204
159217
159245
159295
159275
159253
159235
159161
159107
159100
159181
159262
159252
159271
159294
159261
159196
159123
159159
159199
159268
159286
159167
159209
159300
159274
159195
159140
159233
159243
159226
159265
159203
159154
159145
159265
159311
159305
159233
159192
159200
159163
159103
159148
159220
159201
159185
159124
159128
159110
159138
159155
159133
159219
159263
159262
159233
159191
159215
159212
159213
159201
159141
159197
159173
159151
159139
159108
159138
159165
159110
159109
159141
159179
159232
159222
159217
159192
159173
159109
159000
158950
158939
159045
159172
159171
159184
159154
159204
159145
159107
159092
159078
159162
159258
159263
159225
159108
159078
159068
159154
159230
159134
159135
159156
159167
159131
159126
159146
159201
159158
159173
159114
159101
159139
159176
159173
159085
159145
159164
159113
159112
159114
159148
159225
159258
159171
159141
159115
159119
159113
159112
159104
159131
159152
159163
159101
159060
159113
159135
159167
159213
159176
159149
159152
159133
159105
159119
159165
159158
159141
159119
159072
159136
159197
159130
159139
159142
159158
159135
159069
159123
159130
159117
159151
159210
159303
159237
159189
159144
159108
159142
159137
159196
159238
159294
159208
159101
159116
159091
159120
159161
159141
159196
159179
159180
159173
159118
159200
159236
159168
159162
159133
159163
159209
159184
159152
159149
159176
159195
159139
159137
159171
159209
159209
159253
159207
159125
159144
159149
159247
159358
159248
159252
159244
159227
159243
159208
159176
159243
159209
159187
159069
159089
159117
159180
159217
159169
159178
159085
159017
159082
159163
159275
159259
159251
159239
159214
159219
159183
159222
159221
159172
159167
159096
159161
159323
159250
159299
159309
159249
159229
159203
159334
159290
159262
159201
159193
159258
159296
159266
159334
159330
159261
159246
159341
159332
159237
159197
159260
159309
159360
159268
159311
159359
159334
159307
159304
159286
159261
159240
159286
159313
159284
159370
159357
159358
159313
159263
159277
159251
159226
159202
159229
159270
159387
159382
159336
159308
159283
159255
159188
159148
159267
159348
159416
159360
159267
159255
159306
159345
159313
159300
159278
159296
159306
159310
159326
159378
159374
159318
159310
159267
159353
159346
159377
159370
159404
159429
159481
159567
159657
159536
159560
159613
159622
159558
159494
159485
159438
159362
159291
159180
159152
159069
159064
159098
159030
159035
159040
159017
158994
158967
159044
159085
159184
159228
159223
159246
159262
159271
159242
159242
159368
159387
159347
159351
159384
159441
159428
159413
159409
159346
159358
159298
159240
159328
159384
159481
159474
159419
159346
159290
159333
159341
159368
159392
159385
159339
159306
159289
159281
159319
159551
159549
159473
159384
159342
159426
159467
159481
159538
159447
159461
159485
159468
159506
159472
159447
159420
159395
159338
159339
159370
159382
159493
159560
159553
159500
159513
159513
159512
159517
159545
159466
159451
159449
159442
159508
159545
159558
159496
159477
159500
159485
159519
159599
159566
159538
159456
159484
159512
159547
159561
159566
159572
159545
159543
159638
159657
159634
159580
159521
159563
159575
159584
159583
159566
159569
159532
159547
159520
159535
159622
159623
159648
159667
159512
159550
159542
159558
159582
159562
159615
159633
159622
159594
159558
159591
159531
159526
159564
159487
159510
159571
159638
159609
159585
159540
159553
159564
159609
159649
159669
159640
159613
159615
159609
159622
159609
159672
159725
159687
159665
159670
159687
159690
159597
159615
159617
159628
159580
159638
159682
159701
159773
159729
159605
159626
159671
159669
159727
159772
159822
159776
159794
159818
159780
159786
159800
159771
159704
159691
159673
159750
159795
159814
159847
159852
159925
159805
159794
159817
159838
159820
159813
159805
159713
159724
159764
159828
159902
159822
159788
159837
159872
159885
159854
159871
159788
159733
159751
159713
159755
159826
159856
159828
159734
159771
159759
159761
159741
159819
159878
159883
159791
159772
159788
159782
159714
159755
159732
159721
159738
159818
159866
159867
159785
159805
159801
159796
159822
159770
159768
159822
159836
159788
159762
159820
159861
159872
159869
159773
159718
159732
159785
159782
159801
159806
159751
159816
159857
159889
159915
159880
159888
159885
159832
159824
159765
159746
159786
159759
159794
159749
159783
159815
159808
159826
159924
159920
159856
159803
159812
159809
159823
159797
159743
159834
159817
159889
159904
159863
159826
159827
159805
159866
159811
159813
159824
159893
159904
159829
159859
159889
159851
159825
159765
159796
159785
159876
159989
159928
159892
159848
159957
159992
159948
159928
159918
159866
159881
159823
159873
159942
160060
160073
159927
159957
159960
159921
160009
159993
159975
159969
159937
159957
159891
159893
159866
159904
159958
160037
160050
160020
160005
159938
159943
159990
159881
159908
160027
160008
160067
160059
160019
160062
159986
159962
160034
160025
159956
159909
160014
160039
160072
160037
160061
160070
160069
160029
159951
159967
159963
160061
160054
160024
160028
160065
160112
160110
160124
160071
159995
160038
160058
160091
160024
160066
160036
160032
160080
160069
160016
160026
160082
160085
160128
160223
160194
160165
160171
160083
160113
160100
160069
160118
160085
160165
160146
160148
160067
159998
160026
160097
160085
160104
160086
160200
160236
160242
160248
160129
160176
160184
160174
160166
160124
160172
160181
160240
160228
160161
160160
160160
160181
160253
160260
160340
160335
160322
160261
160191
160183
160208
160265
160304
160242
160305
160260
160258
160246
160326
160333
160374
160382
160325
160375
160368
160310
160353
160331
160273
160281
160223
160255
160304
160371
160405
160417
160298
160260
160218
160247
160292
160277
160228
160195
160245
160229
160217
160188
160172
160260
160294
160232
160268
160246
160239
160203
160198
160234
160201
160243
160287
160227
160200
160172
160221
160239
160273
160208
160163
160264
160344
160330
160312
160214
160182
160233
160261
160283
160275
160312
160283
160362
160395
160440
160458
160458
160478
160477
160460
160489
160476
160480
160504
160401
160388
160431
160333
160289
160192
160101
160028
159987
160021
159942
159933
160032
160039
160000
159975
160068
160152
160202
160185
160232
160335
160327
160258
160310
160293
160260
160248
160318
160334
160352
160364
160330
160287
160333
160291
160281
160261
160265
160365
160405
160375
160322
160268
160230
160189
160230
160268
160312
160378
160405
160465
160364
160320
160298
160222
160247
160296
160365
160387
160346
160403
160353
160295
160289
160276
160343
160310
160320
160344
160304
160343
160368
160401
160355
160293
160276
160236
160322
160358
160346
160386
160338
160294
160252
160204
160260
160271
160351
160405
160388
160400
160393
160388
160362
160279
160264
160267
160273
160253
160262
160289
160303
160375
160371
160295
160375
160395
160379
160412
160344
160385
160392
160353
160316
160230
160221
160275
160323
160380
160375
160369
160438
160405
160444
160384
160322
160287
160279
160376
160408
160399
160412
160366
160327
160296
160345
160363
160340
160404
160337
160375
160350
160285
160266
160269
160309
160303
160292
160252
160219
160271
160250
160201
160184
160133
160107
160127
160229
160284
160238
160257
160234
160212
160234
160184
160178
160198
160215
160180
160182
160319
160223
160107
160130
160114
160180
160224
160221
160132
160184
160195
160174
160248
160264
160209
160214
160187
160166
160118
160083
160112
160179
160184
160147
160062
160068
160062
160111
160193
160227
160204
160171
160093
160099
160064
160082
160129
160103
160111
160049
159970
159993
160069
160103
160076
160091
160084
160042
160057
160046
160102
160058
160081
160037
160022
160071
160089
160030
160009
159999
160049
160062
160098
160078
159932
159936
159986
159995
160072
160052
160043
160048
160001
159961
159894
159924
159944
160015
160024
160058
160084
160019
160017
160018
159987
160029
159992
160032
160034
160005
159986
160053
160060
160038
159998
160021
160018
160012
160048
160033
160099
160067
160004
160013
160031
160081
160100
160024
159998
159947
159929
159980
160022
160014
160027
160002
160059
160100
160067
160030
160000
159999
160024
159999
159976
160037
160004
159987
160015
160003
160019
159988
159928
159959
159935
159853
159917
159937
159930
159923
159964
160032
160036
160012
159884
159836
159877
159957
159976
159883
159859
159879
159951
159929
159863
159831
159847
159863
159906
159929
159938
159971
159889
159887
159859
159850
159860
159853
159886
159922
159934
159802
159831
159822
159850
159868
159912
159879
159895
159822
159825
159896
159853
159847
159811
159872
159815
159817
159832
159833
159844
159785
159826
159827
159795
159780
159817
159763
159772
159774
159810
159837
159838
159813
159768
159785
159810
159814
159848
159870
159832
159809
159799
159776
159674
159710
159744
159833
159938
159894
159883
159899
159849
159802
159748
159783
159780
159816
159792
159774
159826
159829
159807
159780
159719
159714
159731
159786
159786
159746
159697
159692
159815
159958
159883
159857
159874
159836
159805
159711
159758
159784
159760
159774
159735
159776
159799
159788
159792
159781
159824
159838
159850
159817
159682
159699
159725
159795
159819
159708
159728
159733
159724
159676
159699
159737
159785
159789
159823
159779
159792
159786
159759
159769
159741
159690
159739
159753
159781
159760
159781
159843
159842
159821
159783
159767
159737
159723
159679
159698
159773
159754
159737
159700
159682
159783
159854
159759
159765
159689
159723
159785
159726
159678
159650
159742
159811
159850
159881
159773
159808
159785
159794
159754
159718
159730
159690
159718
159744
159711
159764
159851
159826
159852
159831
159800
159741
159730
159700
159715
159800
159803
159786
159831
159732
159629
159677
159737
159790
159754
159782
159825
159901
159876
159864
159854
159835
159820
159815
159772
159769
159856
159844
159821
159737
159719
159598
159626
159751
159794
159872
159800
159762
159751
159781
159768
159761
159840
159854
159797
159852
159832
159831
159882
159787
159740
159699
159752
159811
159861
159852
159802
159748
159751
159712
159722
159766
159856
159888
159876
159953
159890
159818
159895
159844
159900
159976
160004
160049
160074
160118
160126
160073
159974
159866
159827
159777
159790
159781
159593
159549
159553
159463
159405
159403
159382
159409
159476
159507
159532
159607
159620
159665
159649
159638
159730
159786
159779
159784
159761
159796
159912
159940
159840
159736
159753
159737
159735
159795
159790
159822
159799
159768
159794
159768
159822
159849
159857
159850
159752
159749
159811
159866
159958
159891
159827
159767
159719
159709
159757
159896
159983
159978
159879
159795
159852
159803
159786
159825
159910
160019
160007
159937
159912
159854
159875
159876
159886
159889
159867
159873
159893
159918
159910
159876
159880
159847
159805
159798
159789
159806
159856
159866
159936
159975
159974
159912
159871
159859
159834
159864
159978
159942
159912
159831
159815
159859
159948
159977
159980
159977
159994
160017
159979
159915
159927
159936
159908
159974
159943
159965
160046
160092
160058
159998
160049
160011
160013
160007
160009
160174
160143
160108
160067
160023
160053
160017
159978
160024
159950
160001
160084
160069
160036
160098
160079
160041
160006
160011
159947
159934
159946
159935
159953
159958
159952
159907
159884
159890
159910
159962
160037
160049
159946
159896
159919
159896
159972
160008
159979
159947
159993
160010
159971
159829
159836
159880
159929
159936
159910
159937
159983
159940
159882
159871
159912
159920
159965
159944
159891
159895
159955
159966
159914
159812
159768
159858
159878
159901
159935
160004
160012
159985
159942
159918
159908
159931
159977
159963
159878
159942
159915
159929
159968
159967
159947
159937
159934
159840
159818
159893
159986
160040
160018
159963
159981
159918
159848
159861
159832
159854
159898
159976
159962
159881
159934
159929
159948
159912
159865
159911
159946
159924
159850
159876
159998
160029
160030
159951
159901
159894
159865
159838
159858
159923
160013
159995
159968
159896
159865
159920
159955
160011
159980
159930
159888
159865
159938
159984
159962
159928
159947
159968
160013
159982
159968
159994
159985
159960
159952
160015
160022
160021
160004
159917
159936
159902
159861
159916
160008
160097
160062
160049
160045
160029
160005
159956
159905
159900
159934
160042
160003
159981
160004
159926
159863
159838
159912
159913
159946
160003
160015
159993
159940
159959
159958
159913
159984
160047
160026
159985
159952
159969
160007
160037
160010
159982
159950
159972
159924
159974
160016
160013
159991
159970
160020
160042
160046
160041
159982
159989
159988
160015
159981
159901
159918
160001
160068
160010
160000
160089
160111
160179
160101
159977
159987
160030
160030
160041
159996
160006
160164
160189
160116
160030
160017
160038
160101
160023
160011
160090
160103
160090
160116
160049
160062
160085
160093
160075
160067
160128
160153
160157
160138
160105
160133
160134
160127
160166
160130
160167
160095
160082
160144
160192
160178
160157
160079
160113
160094
160107
160188
160214
160241
160195
160176
160222
160190
160149
160069
160093
160084
160158
160247
160234
160286
160271
160221
160233
160219
160301
160299
160277
160257
160195
160221
160308
160284
160261
160245
160291
160287
160230
160306
160197
160204
160188
160247
160208
160165
160319
160295
160277
160290
160221
160165
160167
160166
160237
160285
160320
160301
160240
160275
160221
160252
160305
160228
160248
160255
160271
160230
160272
160240
160243
160298
160273
160227
160232
160250
160285
160329
160355
160326
160281
160256
160238
160273
160287
160222
160181
160238
160269
160260
160272
160295
160301
160262
160246
160243
160339
160326
160334
160327
160220
160305
160333
160309
160273
160280
160335
160322
160359
160371
160333
160311
160338
160301
160246
160238
160277
160283
160221
160211
160262
160275
160364
160397
160331
160345
160355
160261
160249
160247
160223
160282
160235
160316
160358
160343
160346
160328
160271
160215
160184
160142
160137
160225
160237
160198
160245
160238
160280
160320
160358
160301
160280
160257
160289
160241
160251
160271
160235
160236
160184
160137
160130
160206
160254
160282
160372
160395
160363
160397
160341
160324
160326
160339
160364
160359
160488
160487
160503
160505
160445
160429
160354
160272
160185
160138
160086
160015
160014
160013
159942
159966
159875
159878
159916
159891
159987
160019
160039
159976
159957
160004
160085
160180
160252
160206
160211
160210
160222
160225
160247
160232
160195
160148
160089
160104
160262
160335
160395
160339
160255
160270
160194
160156
160124
160121
160301
160320
160273
160261
160267
160281
160282
160246
160188
160151
160281
160279
160229
160184
160160
160287
160318
160285
160223
160212
160239
160237
160278
160265
160153
160186
160264
160243
160200
160226
160257
160266
160278
160240
160234
160234
160228
160215
160233
160221
160300
160310
160243
160206
160291
160252
160202
160173
160206
160212
160240
160184
160122
160187
160230
160237
160205
160179
160145
160091
160155
160218
160235
160265
160255
160297
160295
160224
160155
160102
160180
160238
160221
160295
160295
160259
160265
160223
160200
160203
160192
160281
160240
160309
160308
160277
160228
160219
160223
160172
160164
160178
160160
160165
160181
160208
160261
160188
160185
160124
160163
160170
160139
160110
160089
160132
160120
160075
159996
160006
160048
160101
160170
160164
160119
160109
160068
160016
159977
159966
160062
160173
160148
160118
160085
160063
160044
160098
160037
159937
160034
160018
159990
160067
160078
160072
160077
160060
160031
159993
159981
160044
160098
160122
160060
160068
160048
159974
159929
159922
159990
160048
160106
160062
159991
160017
160023
160053
160032
160001
159984
159988
160068
160072
160033
159978
159972
159943
159912
159916
159964
159984
160034
160076
160103
160136
160081
160037
160021
159934
159939
159961
160006
159996
159886
159953
160050
160097
160036
159956
160016
160024
160105
160054

[HeartVoice API 返回]
# HeartVoice 专业 API 返回的聚合指标（不返回原始波形分析数据）
# 与下方 [算法提取后的结构化特征] 对照可定位本地算法差异
平均心率:54
最低心率:0
最高心率:0
诊断:SNB
QRS宽度:102
P波宽度:97
PR间期:192
QT间期:361
QTc:342
房性早搏:0
室性早搏:0
信号质量:0.89
导联反接:true
是否异常:true

[算法提取后的结构化特征]
# 由 EcgFeatureExtractor.extract() + toPromptText() 在手机端重建
# 与手表端发给 DeepSeek 的提示词文本一致（DS 实际收到的数据）
# 注意: 用户 profile（年龄性别）未存入测量记录，手机端重建时为'未知'
#       助手如需年龄性别做医学判断，需用户单独提供

[用户属性]

[全局指标]
采样率:500Hz 时长:30.9s 总点数:15460
R波检测:23个 平均心率:49bpm 范围:48-55bpm
R波位置(样本索引):892,1426,2238,2525,3493,3600,4050,4635,5669,5760,5970,6816,7357,8419,9274,9595,10646,11255,12619,12923,13540,14622,15232
RR间期序列(ms，[*]为偏离均值>20%的异常间期，多为早搏/误检):[1068*] [1624*] [574*] [1936*] [900*] 1170 [2068*] [420*] [1692*] 1082 [2124*] [1710*] [642*] [2102*] 1218 [608*] 1234 [2164*] 1220
RR差值序列(ms):556,-1050,1362,-1036,270,898,-1648,1272,-610,1042,-414,-1068,1460,-884,-610,626,930,-944
SDNN:55.8ms RMSSD:81.7ms pNN50:50.0%
QRS宽度(本地估测,ms):54±13
PR间期(本地估测,ms):151±63
QT间期(本地估测,ms):439 QTc(Bazett):396ms QTc(Fridericia):410ms
R波平均振幅:0.29mV
R波极性:负向(负向提示导联反接/位置异常)
T/R振幅比:1.80(正常0.1-0.5，<0.1低平，>0.5高尖)
ST段偏移(本地估测,mV):-0.014(正常±0.05，>0.1抬高，<-0.1压低)
信号质量:0.81 良好
噪声段:10.0-11.0s(噪声); 23.0-24.0s(噪声); 26.0-27.0s(噪声)

[节律判别特征]
RR变异系数:0.416(高度不规律)
Poincaré散点形态:扇形(高度不规律，疑似房颤)
短-长RR配对数(早搏代偿):4个

[逐秒分段]
时段(s)  R波  振幅范围(mV)  峰峰值(mV)  最大斜率(mV/s)  RMS(mV)
0.0-1.0  0  -1.30~1.29  2.59  118.00  0.81
1.0-2.0  1  -0.55~0.30  0.84  100.00  0.15
2.0-3.0  1  -0.51~1.00  1.51  135.50  0.35
3.0-4.0  0  -0.70~0.40  1.10  95.00  0.21  ← 本秒无R波(心率<60或代偿间隙)
4.0-5.0  1  -0.55~0.98  1.53  128.50  0.35
5.0-6.0  1  -1.35~0.56  1.91  91.50  0.45
6.0-7.0  1  -0.84~0.95  1.79  113.50  0.48
7.0-8.0  1  -0.55~1.04  1.59  94.50  0.46
8.0-9.0  1  -1.32~0.61  1.92  76.00  0.58
9.0-10.0  1  -0.77~0.64  1.41  102.50  0.40
10.0-11.0  0  -0.40~0.24  0.64  98.50  0.10  ← 噪声段
11.0-12.0  3  -0.38~0.47  0.85  117.50  0.19
12.0-13.0  0  -0.44~0.45  0.89  102.50  0.18  ← 本秒无R波(心率<60或代偿间隙)
13.0-14.0  1  -0.51~0.29  0.81  85.00  0.11
14.0-15.0  1  -0.71~0.72  1.43  91.00  0.31
15.0-16.0  0  -0.52~0.55  1.07  78.50  0.21  ← 本秒无R波(心率<60或代偿间隙)
16.0-17.0  1  -0.28~0.60  0.88  120.00  0.15
17.0-18.0  0  -0.79~0.58  1.37  83.50  0.28  ← 本秒无R波(心率<60或代偿间隙)
18.0-19.0  1  -0.47~0.51  0.98  80.00  0.25
19.0-20.0  1  -1.41~2.39  3.81  80.50  1.07
20.0-21.0  0  -0.80~0.59  1.39  93.00  0.35  ← 本秒无R波(心率<60或代偿间隙)
21.0-22.0  1  -0.38~0.45  0.84  89.00  0.19
22.0-23.0  1  -0.38~0.28  0.66  91.00  0.16
23.0-24.0  0  -0.34~0.26  0.60  80.50  0.09  ← 噪声段
24.0-25.0  0  -0.69~0.48  1.17  82.50  0.20  ← 本秒无R波(心率<60或代偿间隙)
25.0-26.0  2  -0.48~0.36  0.84  96.50  0.15  ← 短RR+代偿间隙(早搏可能)
26.0-27.0  0  -0.26~0.23  0.49  81.00  0.07  ← 噪声段
27.0-28.0  1  -0.78~0.63  1.41  116.00  0.29
28.0-29.0  0  -0.44~0.39  0.83  73.00  0.21  ← 本秒无R波(心率<60或代偿间隙)
29.0-30.0  1  -0.50~0.30  0.80  94.00  0.12
逐秒RMS:0.812,0.148,0.352,0.210,0.352,0.447,0.483,0.462,0.579,0.395,0.096,0.189,0.183,0.113,0.307,0.209,0.151,0.283,0.252,1.072,0.353,0.191,0.156,0.093,0.201,0.147,0.073,0.293,0.206,0.125

[AI 解读]
# DeepSeek 返回的原始 JSON（未清洗，可能含 markdown 代码块包裹）
本次测量未使用 AI 分析（分析方法非 ds_*）
